-0.065630682
-0.065630682
-0.064548858
-0.064909466
-0.066351898
-0.068876155
-0.069236764
-0.073924669
-0.072842845
-0.063827641
-0.066712507
-0.065630682
-0.067794331
-0.062745817
-0.066712507
-0.066351898
-0.063106425
-0.06995798
-0.067433723
-0.072482237
-0.066712507
-0.071400412
-0.066351898
-0.061663993
-0.068154939
-0.069236764
-0.068154939
-0.065270074
-0.067794331
-0.062385209
-0.063467033
-0.060582168
-0.063467033
-0.063467033
-0.062745817
-0.058418519
-0.063827641
-0.066351898
-0.064548858
-0.062745817
-0.061663993
-0.06599129
-0.055533654
-0.068515547
-0.06599129
-0.067433723
-0.064548858
-0.066351898
-0.06995798
-0.063106425
-0.068154939
-0.061303384
-0.069597372
-0.067073115
-0.068154939
-0.067073115
-0.068154939
-0.063106425
-0.067073115
-0.063106425
-0.061663993
-0.064548858
-0.067794331
-0.067433723
-0.062745817
-0.059139736
-0.061303384
-0.063827641
-0.06022156
-0.063827641
-0.063827641
-0.060942776
-0.062745817
-0.064548858
-0.068154939
-0.068154939
-0.063827641
-0.06022156
-0.067794331
-0.066712507
-0.059139736
-0.063106425
-0.066351898
-0.064909466
-0.063467033
-0.062024601
-0.064548858
-0.06599129
-0.06022156
-0.062745817
-0.061663993
-0.06418825
-0.065270074
-0.062385209
-0.060582168
-0.062024601
-0.061663993
-0.061303384
-0.06418825
-0.066712507
-0.061303384
-0.073564061
-0.070679196
-0.071039804
-0.062745817
-0.067433723
-0.069236764
-0.061663993
-0.065270074
-0.066351898
-0.062385209
-0.064548858
-0.068515547
-0.059860952
-0.069597372
-0.063106425
-0.061663993
-0.068154939
-0.063106425
-0.065270074
-0.064909466
-0.064909466
-0.068154939
-0.062024601
-0.066712507
-0.070679196
-0.068154939
-0.071039804
-0.07572771
-0.072842845
-0.078251967
-0.080055008
-0.073564061
-0.073924669
-0.075367102
-0.077891359
-0.078612575
-0.080055008
-0.07572771
-0.081136832
-0.083300481
-0.080776224
-0.074645886
-0.068154939
-0.067433723
-0.066351898
-0.064548858
-0.069236764
-0.071400412
-0.068154939
-0.064548858
-0.071039804
-0.070318588
-0.06995798
-0.067073115
-0.071400412
-0.06599129
-0.063827641
-0.073203453
-0.06418825
-0.065630682
-0.066712507
-0.065630682
-0.072121629
-0.074285278
-0.077170143
-0.075367102
-0.080415616
-0.076448927
-0.078251967
-0.074645886
-0.073203453
-0.071761021
-0.075006494
-0.076809535
-0.073564061
-0.073203453
-0.070318588
-0.063467033
-0.065270074
-0.068154939
-0.065270074
-0.063467033
-0.057336695
-0.063467033
-0.06022156
-0.061303384
-0.053730613
-0.059860952
-0.052648789
-0.050845748
-0.052648789
-0.055894262
-0.049042708
-0.050124532
-0.049763924
-0.049042708
-0.049403316
-0.043272977
-0.042191153
-0.044354802
-0.040388112
-0.042191153
-0.035700206
-0.038585071
-0.038224463
-0.040027504
-0.032815341
-0.033175949
-0.029930476
-0.032815341
-0.032454733
-0.036421423
-0.030291084
-0.031733517
-0.0310123
-0.033175949
-0.028488043
-0.02127588
-0.024521354
-0.021636489
-0.014063718
-0.01947284
-0.017669799
-0.019833448
-0.020554664
-0.015866758
-0.009375812
-0.007572771
-0.012260677
-0.019833448
-0.019833448
-0.023078921
-0.014784934
-0.014784934
-0.013703109
-0.018030407
-0.023800137
-0.027045611
-0.021636489
-0.030291084
-0.02920926
-0.025963786
-0.020915272
-0.028127435
-0.026324395
-0.028488043
-0.030291084
-0.032815341
-0.041109328
-0.042912369
-0.038224463
-0.038585071
-0.041109328
-0.046879059
-0.047960883
-0.043633585
-0.042191153
-0.049403316
-0.055173046
-0.062385209
-0.071039804
-0.064548858
-0.06418825
-0.066351898
-0.070318588
-0.071761021
-0.077170143
-0.06995798
-0.076088318
-0.074285278
-0.078973184
-0.074285278
-0.075367102
-0.082939873
-0.078251967
-0.086545955
-0.095921766
-0.090512644
-0.090152036
-0.092315685
-0.102052105
-0.094839942
-0.094118726
-0.097724807
-0.098446023
-0.101330888
-0.10097028
-0.090512644
-0.104576362
-0.100249064
-0.095561158
-0.09916724
-0.099527848
-0.099888456
-0.102412713
-0.105658186
-0.102052105
-0.100249064
-0.098085415
-0.105297578
-0.105297578
-0.104215754
-0.103494537
-0.108182443
-0.102052105
-0.104576362
-0.102412713
-0.101691497
-0.101330888
-0.105297578
-0.103133929
-0.102412713
-0.10493697
-0.100609672
-0.10097028
-0.102412713
-0.110346092
-0.1107067
-0.102052105
-0.105297578
-0.10493697
-0.103133929
-0.108182443
-0.117558255
-0.112509741
-0.110346092
-0.109264268
-0.108903659
-0.103855145
-0.108543051
-0.10097028
-0.109624876
-0.10493697
-0.106379402
-0.105658186
-0.120803728
-0.124049201
-0.127294675
-0.13017954
-0.131982581
-0.138473527
-0.138834135
-0.141358392
-0.146767515
-0.15542211
-0.160831232
-0.170207044
-0.162634273
-0.164076705
-0.167322179
-0.166600962
-0.167322179
-0.157946367
-0.152537245
-0.135228054
-0.126573459
-0.101330888
-0.086545955
-0.05625487
-0.021636489
0.00396669
0.05048514
0.081497441
0.116115822
0.153979677
0.196892047
0.227543739
0.271177324
0.302910841
0.329956452
0.354838414
0.3808022
0.389096187
0.413256933
0.432008556
0.426960042
0.434532813
0.423714569
0.416502406
0.391981052
0.373229429
0.343659561
0.30687753
0.274062189
0.235837726
0.182107113
0.137031095
0.10493697
0.067433723
0.030651692
-0.002884865
-0.025963786
-0.048682099
-0.064548858
-0.077891359
-0.09916724
-0.107100619
-0.10493697
-0.103494537
-0.118640079
-0.121524944
-0.116837039
-0.120082512
-0.117197647
-0.119000687
-0.121885553
-0.127655283
-0.121524944
-0.122246161
-0.123327985
-0.123688593
-0.113591565
-0.109624876
-0.115394606
-0.108543051
-0.111067308
-0.104215754
-0.094118726
-0.091594469
-0.084021698
-0.072121629
-0.07572771
-0.076448927
-0.071400412
-0.061303384
-0.06599129
-0.070318588
-0.060942776
-0.067073115
-0.063827641
-0.062024601
-0.067433723
-0.073203453
-0.068515547
-0.067073115
-0.069597372
-0.063467033
-0.071400412
-0.080055008
-0.079333792
-0.076809535
-0.071400412
-0.071761021
-0.072121629
-0.07572771
-0.071400412
-0.080055008
-0.081497441
-0.084021698
-0.078251967
-0.084742914
-0.086185346
-0.087627779
-0.082939873
-0.075006494
-0.080055008
-0.081858049
-0.077170143
-0.076088318
-0.077530751
-0.076448927
-0.081136832
-0.079333792
-0.083661089
-0.063467033
-0.056976087
-0.063827641
-0.068515547
-0.063467033
-0.062745817
-0.058779127
-0.062745817
-0.059139736
-0.057336695
-0.055533654
-0.062024601
-0.057336695
-0.054091222
-0.059500344
-0.054091222
-0.053009397
-0.052288181
-0.042912369
-0.050124532
-0.049403316
-0.036421423
-0.033536557
-0.033175949
-0.034618382
-0.033175949
-0.042191153
-0.032815341
-0.030651692
-0.024881962
-0.028488043
-0.028127435
-0.032094125
-0.024881962
-0.025603178
-0.020915272
-0.017309191
-0.015145542
-0.024160746
-0.016948583
-0.014784934
-0.012981893
-0.012981893
-0.016227366
-0.012981893
-0.007212163
-0.006490947
-0.004687906
-0.00396669
0.002163649
-0.002884865
-0.001803041
0.000721216
0.001081824
0.006490947
0.011900069
0.008293987
0.011900069
0.008654595
0.020915272
0.022718313
0.026324395
0.028848652
0.029569868
0.034257774
0.035700206
0.040388112
0.043272977
0.041469937
0.047960883
0.049042708
0.049403316
0.046879059
0.053009397
0.049403316
0.05445183
0.062385209
0.065270074
0.063827641
0.073924669
0.070318588
0.066351898
0.078251967
0.076448927
0.080055008
0.083661089
0.083661089
0.088709603
0.093397509
0.093036901
0.09123386
0.094839942
0.098446023
0.098806631
0.103855145
0.105658186
0.109264268
0.110346092
0.114312782
0.115755214
0.117197647
0.12044312
0.122967377
0.124770418
0.125852242
0.127294675
0.125852242
0.128737107
0.130540148
0.127294675
0.130540148
0.138112919
0.138473527
0.140997784
0.143882649
0.140997784
0.140637176
0.141719001
0.14568569
0.144964474
0.148209947
0.147849339
0.148570555
0.148570555
0.14568569
0.145325082
0.150012988
0.143882649
0.144603866
0.140637176
0.137031095
0.138834135
0.133064405
0.139194744
0.140637176
0.138112919
0.134867446
0.129458324
0.126934067
0.122967377
0.120082512
0.112149133
0.113230957
0.113230957
0.108182443
0.102412713
0.099527848
0.094118726
0.084382306
0.077170143
0.077170143
0.071761021
0.065270074
0.063827641
0.062385209
0.058418519
0.05445183
0.054812438
0.03894568
0.036060814
0.030291084
0.027766827
0.014424326
0.012621285
0.016227366
0.017669799
0.015145542
0.013342501
0.006490947
-0.004687906
-0.017669799
-0.018030407
-0.025603178
-0.034257774
-0.031733517
-0.038224463
-0.040388112
-0.050124532
-0.042912369
-0.043272977
-0.048682099
-0.049763924
-0.052288181
-0.059139736
-0.059500344
-0.06599129
-0.069597372
-0.082579265
-0.074645886
-0.073564061
-0.072121629
-0.075006494
-0.079333792
-0.077170143
-0.082579265
-0.077891359
-0.082218657
-0.085103522
-0.082579265
-0.088348995
-0.097003591
-0.093758117
-0.090512644
-0.093397509
-0.084742914
-0.097003591
-0.098446023
-0.096642983
-0.101691497
-0.096642983
-0.104215754
-0.102412713
-0.096642983
-0.097724807
-0.097364199
-0.100609672
-0.099527848
-0.107100619
-0.097724807
-0.09916724
-0.101691497
-0.098446023
-0.098446023
-0.09916724
-0.095561158
-0.093036901
-0.098806631
-0.098446023
-0.099888456
-0.097003591
-0.097364199
-0.09916724
-0.097364199
-0.096642983
-0.091955077
-0.093397509
-0.092676293
-0.091955077
-0.096282374
-0.096282374
-0.096642983
-0.090873252
-0.09520055
-0.090873252
-0.093758117
-0.091594469
-0.095921766
-0.091594469
-0.097724807
-0.097003591
-0.088348995
-0.08943082
-0.09123386
-0.08943082
-0.090152036
-0.086906563
-0.088348995
-0.083300481
-0.093036901
-0.086545955
-0.087267171
-0.091955077
-0.09123386
-0.092676293
-0.088709603
-0.09520055
-0.092676293
-0.090873252
-0.086906563
-0.091955077
-0.090152036
-0.079333792
-0.071039804
-0.075367102
-0.077891359
-0.070679196
-0.075367102
-0.069236764
-0.069597372
-0.070679196
-0.072482237
-0.070679196
-0.074645886
-0.076448927
-0.078251967
-0.070679196
-0.075367102
-0.072482237
-0.068876155
-0.067433723
-0.072121629
-0.072482237
-0.06995798
-0.065270074
-0.078251967
-0.072121629
-0.064548858
-0.067794331
-0.061663993
-0.068515547
-0.072482237
-0.071039804
-0.072121629
-0.059860952
-0.06995798
-0.076448927
-0.072482237
-0.070679196
-0.072121629
-0.062385209
-0.068876155
-0.06599129
-0.061663993
-0.06022156
-0.061303384
-0.061663993
-0.063467033
-0.066351898
-0.069597372
-0.062745817
-0.062745817
-0.061303384
-0.06022156
-0.062385209
-0.058057911
-0.066712507
-0.06418825
-0.059860952
-0.059860952
-0.068876155
-0.064909466
-0.063827641
-0.063467033
-0.064909466
-0.065270074
-0.065630682
-0.060582168
-0.066351898
-0.058057911
-0.058057911
-0.062385209
-0.060582168
-0.06995798
-0.06599129
-0.06022156
-0.067073115
-0.063106425
-0.062745817
-0.063827641
-0.06599129
-0.061663993
-0.061303384
-0.060942776
-0.070679196
-0.062385209
-0.056976087
-0.066351898
-0.065270074
-0.062385209
-0.059139736
-0.065630682
-0.068515547
-0.067433723
-0.068876155
-0.070318588
-0.062024601
-0.068515547
-0.065630682
-0.064909466
-0.063827641
-0.066351898
-0.06995798
-0.068515547
-0.058418519
-0.063106425
-0.061663993
-0.062024601
-0.060582168
-0.064909466
-0.067794331
-0.064909466
-0.06418825
-0.063467033
-0.063106425
-0.065630682
-0.072121629
-0.068876155
-0.063827641
-0.06599129
-0.062385209
-0.063827641
-0.067073115
-0.065630682
-0.062385209
-0.059500344
-0.058779127
-0.063106425
-0.062024601
-0.066712507
-0.063467033
-0.067794331
-0.063106425
-0.060582168
-0.065270074
-0.064909466
-0.06418825
-0.067794331
-0.065270074
-0.071400412
-0.068154939
-0.069597372
-0.059500344
-0.063827641
-0.068515547
-0.064909466
-0.062024601
-0.063827641
-0.066712507
-0.063467033
-0.06418825
-0.065630682
-0.065270074
-0.061663993
-0.060942776
-0.063827641
-0.061663993
-0.063467033
-0.067073115
-0.060582168
-0.067433723
-0.063467033
-0.066351898
-0.067433723
-0.068876155
-0.067433723
-0.065270074
-0.062024601
-0.065270074
-0.064909466
-0.063467033
-0.057697303
-0.063467033
-0.065630682
-0.069236764
-0.062745817
-0.064548858
-0.063106425
-0.06599129
-0.060942776
-0.065270074
-0.06599129
-0.063827641
-0.062024601
-0.06418825
-0.069597372
-0.062024601
-0.06599129
-0.063467033
-0.059139736
-0.062024601
-0.065270074
-0.063106425
-0.063106425
-0.068515547
-0.072482237
-0.059500344
-0.063827641
-0.060942776
-0.063827641
-0.061303384
-0.067073115
-0.062024601
-0.061303384
-0.064548858
-0.062385209
-0.067073115
-0.06418825
-0.062385209
-0.068515547
-0.067073115
-0.069597372
-0.073203453
-0.078612575
-0.080415616
-0.080776224
-0.084021698
-0.076088318
-0.0796944
-0.080415616
-0.0796944
-0.078612575
-0.077891359
-0.080776224
-0.077170143
-0.088348995
-0.080055008
-0.072121629
-0.067794331
-0.068876155
-0.06418825
-0.073564061
-0.069236764
-0.06995798
-0.068515547
-0.070318588
-0.064548858
-0.067794331
-0.064909466
-0.069597372
-0.066351898
-0.068515547
-0.067433723
-0.064909466
-0.065270074
-0.067794331
-0.064909466
-0.068876155
-0.067794331
-0.082579265
-0.078612575
-0.085103522
-0.077530751
-0.077170143
-0.075006494
-0.073564061
-0.077170143
-0.068876155
-0.078251967
-0.073564061
-0.064548858
-0.067794331
-0.067073115
-0.065630682
-0.059860952
-0.057336695
-0.051566965
-0.065630682
-0.065630682
-0.06418825
-0.058418519
-0.054812438
-0.054812438
-0.05625487
-0.046518451
-0.055533654
-0.052648789
-0.054091222
-0.05445183
-0.051206356
-0.049042708
-0.046879059
-0.047960883
-0.045797234
-0.045797234
-0.03894568
-0.036060814
-0.043633585
-0.036782031
-0.034257774
-0.032094125
-0.033536557
-0.036421423
-0.039306288
-0.029569868
-0.030291084
-0.029569868
-0.025963786
-0.032454733
-0.038224463
-0.024521354
-0.021997097
-0.017309191
-0.018391015
-0.027045611
-0.023078921
-0.020194056
-0.021636489
-0.018751623
-0.012621285
-0.011900069
-0.012260677
-0.014424326
-0.018751623
-0.020915272
-0.015866758
-0.017309191
-0.016587975
-0.026324395
-0.023800137
-0.02524257
-0.029930476
-0.030651692
-0.025603178
-0.018391015
-0.028488043
-0.026324395
-0.027045611
-0.028848652
-0.034618382
-0.038585071
-0.037142639
-0.038224463
-0.038585071
-0.043272977
-0.051566965
-0.039666896
-0.043994194
-0.042551761
-0.051927573
-0.055894262
-0.064548858
-0.061663993
-0.061303384
-0.067073115
-0.065270074
-0.075006494
-0.06995798
-0.073203453
-0.076088318
-0.071400412
-0.078973184
-0.085103522
-0.078251967
-0.080776224
-0.084382306
-0.090152036
-0.09520055
-0.096282374
-0.090152036
-0.094839942
-0.094839942
-0.09520055
-0.102052105
-0.097364199
-0.098446023
-0.097003591
-0.100609672
-0.099527848
-0.099888456
-0.09916724
-0.090873252
-0.103133929
-0.100249064
-0.091955077
-0.096642983
-0.098085415
-0.102052105
-0.107821835
-0.104576362
-0.105658186
-0.101691497
-0.103855145
-0.100609672
-0.100249064
-0.106740011
-0.098446023
-0.105297578
-0.105297578
-0.104215754
-0.100249064
-0.102773321
-0.096642983
-0.104576362
-0.106740011
-0.101691497
-0.105658186
-0.104215754
-0.098085415
-0.106018794
-0.106018794
-0.102052105
-0.101691497
-0.105297578
-0.109985484
-0.109264268
-0.108182443
-0.102052105
-0.105658186
-0.10097028
-0.109985484
-0.109264268
-0.106740011
-0.107100619
-0.107100619
-0.103494537
-0.111427916
-0.125131026
-0.127655283
-0.119721904
-0.13017954
-0.132343189
-0.13991596
-0.139555352
-0.143882649
-0.155061502
-0.160831232
-0.160831232
-0.168764611
-0.166961571
-0.166240354
-0.164437314
-0.16515853
-0.15542211
-0.146406906
-0.132703797
-0.117918863
-0.10097028
-0.076448927
-0.046518451
-0.014063718
0.010818244
0.052648789
0.091594469
0.128376499
0.160470624
0.185352586
0.21564367
0.28956834
0.32058064
0.352314157
0.368902131
0.396668958
0.422272136
0.442105584
0.436696462
0.426960042
0.420469096
0.407126594
0.399914432
0.366738482
0.335004966
0.298583543
0.263604553
0.213480021
0.170567652
0.157225151
0.111788525
0.080415616
0.042191153
0.011900069
-0.024521354
-0.046157842
-0.067794331
-0.073564061
-0.087627779
-0.098446023
-0.106379402
-0.107821835
-0.115394606
-0.073564061
-0.082939873
-0.071761021
-0.063467033
-0.064548858
-0.065270074
-0.06995798
-0.06022156
-0.06418825
-0.062024601
-0.068515547
-0.064548858
-0.063106425
-0.06418825
-0.073203453
-0.06995798
-0.065630682
-0.074285278
-0.078973184
-0.075006494
-0.074285278
-0.076809535
-0.076809535
-0.069597372
-0.06995798
-0.06995798
-0.071761021
-0.079333792
-0.083661089
-0.078612575
-0.08546413
-0.081497441
-0.08546413
-0.078612575
-0.081136832
-0.081497441
-0.0796944
-0.080415616
-0.074285278
-0.076448927
-0.077891359
-0.07572771
-0.075367102
-0.078612575
-0.072482237
-0.066351898
-0.058057911
-0.066351898
-0.06995798
-0.068876155
-0.063467033
-0.058057911
-0.05625487
-0.058779127
-0.058779127
-0.060942776
-0.06418825
-0.05445183
-0.054812438
-0.052288181
-0.054091222
-0.050124532
-0.051566965
-0.047960883
-0.038585071
-0.037863855
-0.039666896
-0.034257774
-0.037863855
-0.032094125
-0.033175949
-0.034257774
-0.032094125
-0.030291084
-0.028848652
-0.021636489
-0.026324395
-0.029569868
-0.018751623
-0.014424326
-0.015145542
-0.02127588
-0.020915272
-0.01550615
-0.01550615
-0.015145542
-0.016227366
-0.018751623
-0.012621285
-0.006851555
-0.00576973
-0.003245473
-0.00396669
-0.002524257
0.000721216
0.000721216
0.00576973
0.00396669
0.017309191
0.014063718
0.014063718
0.012260677
0.021636489
0.020194056
0.031733517
0.027045611
0.0310123
0.033175949
0.037503247
0.041830545
0.041469937
0.049763924
0.042191153
0.040388112
0.045797234
0.047239667
0.052648789
0.052648789
0.060942776
0.060582168
0.06599129
0.056976087
0.063467033
0.074645886
0.075006494
0.077530751
0.080776224
0.075006494
0.078251967
0.077891359
0.0796944
0.089791428
0.097003591
0.093758117
0.09916724
0.095561158
0.103855145
0.102412713
0.109624876
0.1107067
0.113591565
0.113230957
0.117197647
0.120803728
0.125131026
0.125131026
0.116115822
0.120803728
0.123688593
0.12440981
0.124770418
0.129458324
0.131261364
0.133064405
0.130540148
0.136670487
0.146406906
0.144964474
0.147128123
0.140997784
0.132343189
0.145325082
0.146406906
0.148931163
0.146767515
0.149291772
0.14965238
0.145325082
0.141719001
0.144964474
0.139194744
0.142079609
0.13414623
0.137391703
0.140997784
0.140637176
0.144243258
0.135588662
0.130540148
0.136670487
0.125852242
0.127294675
0.122967377
0.120082512
0.115394606
0.113230957
0.109264268
0.106740011
0.108182443
0.105658186
0.089070212
0.080055008
0.083300481
0.073564061
0.072842845
0.073564061
0.061663993
0.065270074
0.057336695
0.051206356
0.042912369
0.033536557
0.029930476
0.025963786
0.028848652
0.022357705
0.014784934
0.013342501
0.010097028
0.007212163
0.000721216
-0.003606081
-0.016948583
-0.02127588
-0.023439529
-0.031733517
-0.028848652
-0.028488043
-0.036421423
-0.043994194
-0.046157842
-0.042191153
-0.05048514
-0.041830545
-0.063106425
-0.062385209
-0.066712507
-0.069597372
-0.073203453
-0.077891359
-0.079333792
-0.072482237
-0.077170143
-0.07572771
-0.081497441
-0.077530751
-0.085824738
-0.0796944
-0.0796944
-0.086545955
-0.087267171
-0.093758117
-0.091594469
-0.094839942
-0.094118726
-0.096282374
-0.09123386
-0.095561158
-0.094118726
-0.102412713
-0.104576362
-0.097724807
-0.090152036
-0.087988387
-0.089070212
-0.089791428
-0.093036901
-0.089070212
-0.093036901
-0.093036901
-0.095921766
-0.094839942
-0.102412713
-0.097003591
-0.097003591
-0.103494537
-0.099527848
-0.10493697
-0.106379402
-0.098806631
-0.098446023
-0.101691497
-0.099527848
-0.10493697
-0.095561158
-0.100609672
-0.10097028
-0.097724807
-0.092315685
-0.096642983
-0.103855145
-0.102052105
-0.097364199
-0.097364199
-0.096642983
-0.097364199
-0.097003591
-0.101691497
-0.099888456
-0.095921766
-0.094839942
-0.094479334
-0.100609672
-0.095561158
-0.092315685
-0.094839942
-0.09916724
-0.087988387
-0.086906563
-0.087627779
-0.087267171
-0.092676293
-0.094118726
-0.087267171
-0.097364199
-0.096642983
-0.093036901
-0.091594469
-0.08943082
-0.096642983
-0.097724807
-0.091594469
-0.089791428
-0.08943082
-0.086545955
-0.088709603
-0.084021698
-0.087627779
-0.084742914
-0.091594469
-0.084382306
-0.084742914
-0.08943082
-0.091594469
-0.090512644
-0.08943082
-0.087267171
-0.088709603
-0.082939873
-0.096642983
-0.09123386
-0.082939873
-0.077891359
-0.073203453
-0.073203453
-0.076809535
-0.07572771
-0.071761021
-0.067073115
-0.079333792
-0.068515547
-0.069597372
-0.075006494
-0.073564061
-0.075367102
-0.076809535
-0.068876155
-0.077530751
-0.071039804
-0.068876155
-0.062024601
-0.069597372
-0.068515547
-0.06995798
-0.065270074
-0.068515547
-0.063467033
-0.064548858
-0.075006494
-0.070318588
-0.066712507
-0.069597372
-0.070318588
-0.071400412
-0.071039804
-0.064909466
-0.069597372
-0.065630682
-0.067794331
-0.073203453
-0.06599129
-0.064909466
-0.066351898
-0.067433723
-0.06418825
-0.068154939
-0.060942776
-0.06599129
-0.060582168
-0.060582168
-0.057336695
-0.061663993
-0.06995798
-0.06599129
-0.06599129
-0.069597372
-0.067073115
-0.067794331
-0.065630682
-0.06418825
-0.063467033
-0.06418825
-0.070318588
-0.062385209
-0.062385209
-0.067794331
-0.062385209
-0.065630682
-0.067794331
-0.06599129
-0.06418825
-0.06418825
-0.06022156
-0.06418825
-0.06022156
-0.062385209
-0.066351898
-0.066712507
-0.063106425
-0.062385209
-0.062024601
-0.063467033
-0.067073115
-0.067073115
-0.056976087
-0.059500344
-0.06599129
-0.065270074
-0.060582168
-0.062385209
-0.063106425
-0.060582168
-0.067433723
-0.067794331
-0.061663993
-0.068154939
-0.063467033
-0.055533654
-0.072121629
-0.062745817
-0.062745817
-0.063467033
-0.06418825
-0.065270074
-0.063827641
-0.063467033
-0.061663993
-0.063827641
-0.06022156
-0.063467033
-0.062024601
-0.067794331
-0.065630682
-0.067433723
-0.06995798
-0.067073115
-0.064909466
-0.061663993
-0.056615479
-0.06995798
-0.060582168
-0.062745817
-0.063106425
-0.059860952
-0.062385209
-0.064909466
-0.063827641
-0.060942776
-0.06418825
-0.067433723
-0.063467033
-0.062024601
-0.055533654
-0.062024601
-0.06418825
-0.063106425
-0.062385209
-0.064548858
-0.06418825
-0.060582168
-0.06599129
-0.068876155
-0.059860952
-0.063106425
-0.058779127
-0.062385209
-0.063106425
-0.063467033
-0.067073115
-0.059139736
-0.067433723
-0.063467033
-0.06418825
-0.068876155
-0.064548858
-0.06599129
-0.06418825
-0.064548858
-0.064548858
-0.067073115
-0.064909466
-0.067073115
-0.066712507
-0.061663993
-0.065630682
-0.064548858
-0.065270074
-0.060582168
-0.063827641
-0.061663993
-0.063467033
-0.061303384
-0.063827641
-0.064909466
-0.062745817
-0.062385209
-0.068154939
-0.06418825
-0.068515547
-0.065630682
-0.065630682
-0.063827641
-0.058418519
-0.058418519
-0.064548858
-0.064548858
-0.064548858
-0.064548858
-0.064548858
-0.064548858
-0.064548858
-0.064548858
-0.067073115
-0.067073115
-0.064909466
-0.064909466
-0.064909466
-0.064909466
-0.064909466
-0.065630682
-0.064909466
-0.064548858
-0.064548858
-0.066712507
-0.067433723
-0.067433723
-0.061663993
-0.065630682
-0.067073115
-0.069597372
-0.070318588
-0.065270074
-0.067794331
-0.067794331
-0.073203453
-0.071761021
-0.064909466
-0.069236764
-0.073203453
-0.069597372
-0.069597372
-0.06995798
-0.068515547
-0.063827641
-0.071761021
-0.069597372
-0.064548858
-0.073203453
-0.068515547
-0.069236764
-0.070679196
-0.070679196
-0.070679196
-0.070679196
-0.070679196
-0.078973184
-0.081858049
-0.081858049
-0.081858049
-0.081858049
-0.081858049
-0.072121629
-0.072842845
-0.074645886
-0.074645886
-0.074645886
-0.073203453
-0.06022156
-0.058779127
-0.058779127
-0.068154939
-0.061663993
-0.061663993
-0.056976087
-0.063827641
-0.055894262
-0.053730613
-0.052648789
-0.057697303
-0.052648789
-0.055533654
-0.055533654
-0.055533654
-0.055533654
-0.052288181
-0.052288181
-0.051206356
-0.046157842
-0.045797234
-0.041469937
-0.041469937
-0.041469937
-0.039666896
-0.039306288
-0.039306288
-0.039306288
-0.039306288
-0.039306288
-0.037503247
-0.036060814
-0.039306288
-0.039306288
-0.032454733
-0.031733517
-0.029569868
-0.025963786
-0.033175949
-0.032454733
-0.022718313
-0.021636489
-0.021997097
-0.018391015
-0.021997097
-0.014063718
-0.014063718
-0.014063718
-0.014063718
-0.014063718
-0.00973642
-0.016227366
-0.016227366
-0.016227366
-0.016227366
-0.016227366
-0.016227366
-0.015866758
-0.015145542
-0.015145542
-0.015145542
-0.015145542
-0.027406219
-0.024160746
-0.024160746
-0.024160746
-0.024160746
-0.024160746
-0.029930476
-0.039306288
-0.042191153
-0.032815341
-0.038585071
-0.042551761
-0.041109328
-0.048682099
-0.047239667
-0.047239667
-0.047239667
-0.047239667
-0.063106425
-0.065630682
-0.057336695
-0.057697303
-0.062385209
-0.062385209
-0.062385209
-0.076448927
-0.076448927
-0.076448927
-0.076448927
-0.076448927
-0.076448927
-0.078612575
-0.084742914
-0.088709603
-0.08943082
-0.090152036
-0.09520055
-0.093758117
-0.100249064
-0.094479334
-0.098806631
-0.098806631
-0.096282374
-0.09520055
-0.095561158
-0.098446023
-0.098446023
-0.098446023
-0.098446023
-0.098446023
-0.098446023
-0.097724807
-0.105297578
-0.105297578
-0.105297578
-0.105297578
-0.105297578
-0.102052105
-0.100609672
-0.100609672
-0.100609672
-0.100249064
-0.102412713
-0.107461227
-0.103494537
-0.103494537
-0.103494537
-0.103494537
-0.103494537
-0.106740011
-0.101691497
-0.103133929
-0.106740011
-0.105297578
-0.100609672
-0.104215754
-0.100249064
-0.102773321
-0.102773321
-0.102773321
-0.102773321
-0.10097028
-0.107461227
-0.104576362
-0.110346092
-0.107461227
-0.107461227
-0.107821835
-0.109985484
-0.111067308
-0.111067308
-0.111067308
-0.111067308
-0.111067308
-0.109624876
-0.109624876
-0.122606769
-0.119361296
-0.125852242
-0.127294675
-0.137031095
-0.135588662
-0.14568569
-0.150373596
-0.153619069
-0.157585759
-0.16119184
-0.165879746
-0.164797922
-0.166600962
-0.166600962
-0.166600962
-0.166600962
-0.166600962
-0.166600962
-0.121885553
-0.109264268
-0.109264268
-0.109264268
-0.109264268
-0.109264268
0.025963786
0.058779127
0.058779127
0.058779127
0.193646573
0.232231645
0.263604553
0.297501719
0.329595844
0.352674765
0.378638551
0.399193215
0.424075177
0.42732065
0.439581327
0.421911528
0.420829704
0.412175108
0.403520513
0.387293147
0.356641454
0.356641454
0.356641454
0.356641454
0.356641454
0.168043395
0.125131026
0.125131026
0.047960883
0.047960883
0.047960883
-0.033536557
-0.058418519
-0.058418519
-0.058418519
-0.058418519
-0.058418519
-0.058418519
-0.112870349
-0.113230957
-0.117197647
-0.112870349
-0.116115822
-0.122246161
-0.127294675
-0.121885553
-0.12621285
-0.127655283
-0.127655283
-0.129818932
-0.12440981
-0.112509741
-0.107100619
-0.107100619
-0.107100619
-0.107100619
-0.107100619
-0.084382306
-0.084382306
-0.080415616
-0.080415616
-0.080415616
-0.080415616
-0.080415616
-0.068515547
-0.064548858
-0.064548858
-0.065630682
-0.06418825
-0.063827641
-0.068876155
-0.068876155
-0.068876155
-0.068876155
-0.068876155
-0.068876155
-0.074645886
-0.080055008
-0.078251967
-0.0796944
-0.074645886
-0.073924669
-0.075006494
-0.072482237
-0.06995798
-0.06995798
-0.06995798
-0.06995798
-0.081497441
-0.08546413
-0.081136832
-0.084382306
-0.080055008
-0.080055008
-0.080055008
-0.075367102
-0.075367102
-0.075367102
-0.075367102
-0.075367102
-0.075367102
-0.086545955
-0.078612575
-0.074285278
-0.078612575
-0.068515547
-0.06418825
-0.068876155
-0.066351898
-0.064909466
-0.068515547
-0.061303384
-0.064909466
-0.057697303
-0.06418825
-0.058418519
-0.059860952
-0.059860952
-0.059860952
-0.059860952
-0.059860952
-0.059860952
-0.051927573
-0.051927573
-0.051927573
-0.051927573
-0.051927573
-0.051927573
-0.040388112
-0.033897166
-0.033897166
-0.03497899
-0.032454733
-0.027766827
-0.035700206
-0.026685003
-0.027766827
-0.018030407
-0.022357705
-0.018030407
-0.017669799
-0.022357705
-0.01550615
-0.015866758
-0.017309191
-0.020554664
-0.016948583
-0.010818244
-0.010818244
-0.007933379
-0.007933379
-0.006130338
-0.002884865
-0.002884865
-0.002884865
-0.002884865
-0.002884865
0.001081824
-0.000721216
-0.000721216
-0.000721216
-0.000721216
-0.000721216
-0.000721216
0.021636489
0.027406219
0.032815341
0.030291084
0.037142639
0.03497899
0.037142639
0.039666896
0.040388112
0.038585071
0.040027504
0.041469937
0.039666896
0.056615479
0.058418519
0.058418519
0.058418519
0.058418519
0.058418519
0.058418519
0.068876155
0.072482237
0.072482237
0.072482237
0.072482237
0.069236764
0.082939873
0.082939873
0.085824738
0.088348995
0.091594469
0.098085415
0.093397509
0.102773321
0.097724807
0.101330888
0.113591565
0.118279471
0.109985484
0.117197647
0.119721904
0.122246161
0.117918863
0.116115822
0.120082512
0.120082512
0.120082512
0.120082512
0.120082512
0.13414623
0.133425013
0.13017954
0.13017954
0.13017954
0.13017954
0.148209947
0.140997784
0.140997784
0.140997784
0.140997784
0.140997784
0.147128123
0.147849339
0.147849339
0.144964474
0.145325082
0.146406906
0.143161433
0.138834135
0.141358392
0.132703797
0.135228054
0.139194744
0.13991596
0.139194744
0.137752311
0.138834135
0.138834135
0.138834135
0.138834135
0.138834135
0.118279471
0.115033998
0.115033998
0.115033998
0.115033998
0.115033998
0.103133929
0.084382306
0.084382306
0.084382306
0.067073115
0.064909466
0.068515547
0.067433723
0.058057911
0.053370005
0.050124532
0.040388112
0.030651692
0.027406219
0.0310123
0.021997097
0.01550615
0.015866758
0.010097028
0.008293987
0.001803041
-0.002884865
-0.014784934
-0.022357705
-0.026324395
-0.025963786
-0.028848652
-0.030291084
-0.034257774
-0.039306288
-0.041469937
-0.042912369
-0.047960883
-0.047960883
-0.049763924
-0.051566965
-0.059139736
-0.063827641
-0.069597372
-0.067794331
-0.067433723
-0.07572771
-0.071761021
-0.076088318
-0.080415616
-0.081497441
-0.078973184
-0.084021698
-0.084742914
-0.087988387
-0.090873252
-0.086906563
-0.088709603
-0.09123386
-0.093758117
-0.089070212
-0.094118726
-0.098085415
-0.097003591
-0.099527848
-0.099888456
-0.094839942
-0.088709603
-0.087627779
-0.087627779
-0.093758117
-0.093036901
-0.094839942
-0.091955077
-0.094118726
-0.090512644
-0.091955077
-0.094479334
-0.100609672
-0.098806631
-0.094479334
-0.102773321
-0.09916724
-0.103133929
-0.098806631
-0.102052105
-0.095921766
-0.098085415
-0.10097028
-0.096282374
-0.098085415
-0.096282374
-0.103133929
-0.095561158
-0.092676293
-0.093758117
-0.097364199
-0.094839942
-0.092676293
-0.093397509
-0.098446023
-0.090512644
-0.093036901
-0.093397509
-0.093397509
-0.095561158
-0.093758117
-0.094118726
-0.092315685
-0.09520055
-0.089791428
-0.093397509
-0.085824738
-0.092676293
-0.087627779
-0.088348995
-0.086906563
-0.09123386
-0.090152036
-0.090873252
-0.094118726
-0.08943082
-0.086545955
-0.085103522
-0.085824738
-0.086185346
-0.090512644
-0.08546413
-0.087267171
-0.085103522
-0.090873252
-0.091594469
-0.075006494
-0.073924669
-0.079333792
-0.072121629
-0.072121629
-0.075006494
-0.074645886
-0.078251967
-0.073203453
-0.072482237
-0.070679196
-0.074645886
-0.068515547
-0.078251967
-0.073203453
-0.070318588
-0.069236764
-0.068876155
-0.070318588
-0.074285278
-0.06418825
-0.071039804
-0.064909466
-0.06599129
-0.067433723
-0.073924669
-0.074645886
-0.067073115
-0.068154939
-0.06995798
-0.065630682
-0.063106425
-0.067433723
-0.069597372
-0.06995798
-0.070318588
-0.06599129
-0.06418825
-0.068876155
-0.068154939
-0.063106425
-0.06418825
-0.058418519
-0.061663993
-0.060582168
-0.066351898
-0.069597372
-0.061663993
-0.067073115
-0.058779127
-0.062385209
-0.061663993
-0.066712507
-0.062024601
-0.059860952
-0.062745817
-0.066351898
-0.064909466
-0.062385209
-0.062745817
-0.060942776
-0.066712507
-0.064548858
-0.066351898
-0.067794331
-0.063106425
-0.068154939
-0.063827641
-0.063467033
-0.063827641
-0.062745817
-0.065630682
-0.068876155
-0.065630682
-0.063827641
-0.067794331
-0.068154939
-0.06418825
-0.06022156
-0.063106425
-0.058057911
-0.067433723
-0.062745817
-0.065630682
-0.060942776
-0.062745817
-0.063467033
-0.062745817
-0.065270074
-0.062385209
-0.061663993
-0.064548858
-0.066351898
-0.062745817
-0.063467033
-0.062024601
-0.063467033
-0.062024601
-0.061663993
-0.064909466
-0.070318588
-0.068876155
-0.063827641
-0.062745817
-0.062745817
-0.062385209
-0.059139736
-0.065270074
-0.064548858
-0.062024601
-0.067433723
-0.067073115
-0.062745817
-0.063467033
-0.066351898
-0.066712507
-0.061303384
-0.062024601
-0.06599129
-0.063467033
-0.064909466
-0.065630682
-0.060582168
-0.064909466
-0.06599129
-0.06022156
-0.059860952
-0.063106425
-0.062385209
-0.063827641
-0.063467033
-0.067433723
-0.063827641
-0.063467033
-0.06418825
-0.059500344
-0.059139736
-0.058418519
-0.062385209
-0.063106425
-0.062024601
-0.059860952
-0.06995798
-0.066712507
-0.064548858
-0.061303384
-0.069597372
-0.066351898
-0.06418825
-0.06599129
-0.064909466
-0.062745817
-0.065630682
-0.06418825
-0.064548858
-0.061663993
-0.065270074
-0.058779127
-0.066712507
-0.063106425
-0.067073115
-0.065270074
-0.059860952
-0.058057911
-0.068876155
-0.063827641
-0.064909466
-0.063827641
-0.063106425
-0.058418519
-0.070318588
-0.061663993
-0.064548858
-0.067433723
-0.062385209
-0.063106425
-0.059860952
-0.060942776
-0.066351898
-0.065270074
-0.062024601
-0.064548858
-0.061303384
-0.068154939
-0.063106425
-0.065270074
-0.067433723
-0.06418825
-0.063106425
-0.06022156
-0.067073115
-0.062385209
-0.060942776
-0.060582168
-0.059860952
-0.067073115
-0.067073115
-0.059500344
-0.066712507
-0.064909466
-0.067433723
-0.061663993
-0.065630682
-0.065630682
-0.064909466
-0.064909466
-0.066712507
-0.066351898
-0.070679196
-0.06418825
-0.071039804
-0.076088318
-0.0796944
-0.078251967
-0.081497441
-0.081136832
-0.073924669
-0.076448927
-0.077530751
-0.078973184
-0.078612575
-0.081136832
-0.082218657
-0.074285278
-0.077170143
-0.075006494
-0.073564061
-0.072121629
-0.069597372
-0.070679196
-0.06995798
-0.074645886
-0.06418825
-0.067794331
-0.066712507
-0.073203453
-0.06418825
-0.073924669
-0.069236764
-0.06995798
-0.073203453
-0.068515547
-0.066712507
-0.069597372
-0.062385209
-0.06995798
-0.076809535
-0.078251967
-0.077170143
-0.076088318
-0.080415616
-0.078251967
-0.077170143
-0.072842845
-0.066712507
-0.07572771
-0.072121629
-0.077891359
-0.071761021
-0.069597372
-0.066351898
-0.064548858
-0.06418825
-0.063827641
-0.061303384
-0.060582168
-0.058418519
-0.064909466
-0.060582168
-0.068876155
-0.057697303
-0.053370005
-0.056615479
-0.052648789
-0.048321491
-0.055894262
-0.049042708
-0.051927573
-0.052288181
-0.048321491
-0.059500344
-0.050845748
-0.053009397
-0.050845748
-0.045797234
-0.041830545
-0.036060814
-0.043633585
-0.040388112
-0.037142639
-0.03497899
-0.041109328
-0.03497899
-0.036060814
-0.032094125
-0.035700206
-0.030651692
-0.030291084
-0.02920926
-0.022357705
-0.024521354
-0.024521354
-0.020915272
-0.023078921
-0.021636489
-0.01550615
-0.020554664
-0.023078921
-0.018391015
-0.017669799
-0.016587975
-0.014424326
-0.012260677
-0.016948583
-0.018391015
-0.020915272
-0.016227366
-0.015145542
-0.017669799
-0.02524257
-0.020915272
-0.028488043
-0.025963786
-0.02920926
-0.026324395
-0.028488043
-0.023800137
-0.022718313
-0.025603178
-0.0310123
-0.035339598
-0.036060814
-0.04074872
-0.034257774
-0.03497899
-0.037863855
-0.041469937
-0.039666896
-0.04074872
-0.043272977
-0.048321491
-0.046157842
-0.05048514
-0.060942776
-0.064909466
-0.062024601
-0.064548858
-0.067794331
-0.072482237
-0.071400412
-0.077530751
-0.073564061
-0.07572771
-0.078251967
-0.081136832
-0.081497441
-0.081497441
-0.084382306
-0.081136832
-0.085103522
-0.092315685
-0.095561158
-0.095921766
-0.097003591
-0.09123386
-0.095561158
-0.105658186
-0.095921766
-0.099527848
-0.100249064
-0.097364199
-0.101330888
-0.102052105
-0.096642983
-0.092676293
-0.094479334
-0.097364199
-0.098806631
-0.101691497
-0.100609672
-0.106740011
-0.099888456
-0.098085415
-0.103494537
-0.10493697
-0.104215754
-0.100609672
-0.105658186
-0.10097028
-0.108543051
-0.10493697
-0.105658186
-0.10097028
-0.101330888
-0.101691497
-0.099527848
-0.10097028
-0.100249064
-0.106740011
-0.108543051
-0.102052105
-0.105297578
-0.09916724
-0.105297578
-0.101691497
-0.105297578
-0.102773321
-0.104215754
-0.106379402
-0.108903659
-0.110346092
-0.105658186
-0.111067308
-0.103855145
-0.105658186
-0.107100619
-0.102773321
-0.103494537
-0.107821835
-0.115033998
-0.104576362
-0.120803728
-0.128376499
-0.12621285
-0.124049201
-0.13414623
-0.134506838
-0.141719001
-0.144603866
-0.148209947
-0.160470624
-0.160470624
-0.163716097
-0.164437314
-0.166240354
-0.164437314
-0.160110016
-0.158667583
-0.152537245
-0.145325082
-0.13594927
-0.117918863
-0.106379402
-0.080776224
-0.053370005
-0.027406219
0.009375812
0.049042708
0.088709603
0.12440981
0.1593888
0.195089006
0.232231645
0.267931851
0.308319963
0.333562533
0.362771793
0.379720376
0.405323554
0.426599434
0.431647948
0.426960042
0.423353961
0.421190312
0.408208419
0.398832607
0.373590037
0.3497899
0.306156314
0.268653067
0.2214134
0.18066468
0.135228054
0.098085415
0.066351898
0.023439529
-0.002524257
-0.031372909
-0.053370005
-0.067433723
-0.083661089
-0.094479334
-0.094839942
-0.098085415
-0.103855145
-0.1107067
-0.111788525
-0.115033998
-0.117197647
-0.119000687
-0.114312782
-0.116115822
-0.122606769
-0.059139736
-0.065270074
-0.068876155
-0.062745817
-0.071400412
-0.064909466
-0.071039804
-0.069597372
-0.072482237
-0.071400412
-0.074645886
-0.073564061
-0.070318588
-0.081858049
-0.079333792
-0.071039804
-0.07572771
-0.073564061
-0.071761021
-0.072842845
-0.077170143
-0.083661089
-0.084382306
-0.084382306
-0.085824738
-0.083300481
-0.086545955
-0.078612575
-0.076809535
-0.082218657
-0.084021698
-0.074285278
-0.078251967
-0.074645886
-0.074645886
-0.078973184
-0.07572771
-0.067433723
-0.067433723
-0.063827641
-0.070318588
-0.063467033
-0.061303384
-0.064548858
-0.059139736
-0.062024601
-0.056976087
-0.060942776
-0.057336695
-0.058057911
-0.051927573
-0.053009397
-0.049403316
-0.051206356
-0.054812438
-0.045797234
-0.053370005
-0.049042708
-0.04074872
-0.040388112
-0.036782031
-0.035339598
-0.033536557
-0.036421423
-0.030291084
-0.030651692
-0.026324395
-0.02127588
-0.025963786
-0.021997097
-0.023078921
-0.020915272
-0.016587975
-0.027045611
-0.024160746
-0.015145542
-0.018751623
-0.016948583
-0.013703109
-0.014424326
-0.007212163
-0.010457636
-0.007572771
-0.002884865
-0.009015204
-0.001081824
0.000721216
-0.002524257
0.001442433
0.004327298
0.00396669
-0.001803041
0.012260677
0.00973642
0.004327298
0.008654595
0.01550615
0.020194056
0.027766827
0.034618382
0.036421423
0.026324395
0.036060814
0.036060814
0.040027504
0.043994194
0.042912369
0.04471541
0.047600275
0.047239667
0.053370005
0.052648789
0.060942776
0.059500344
0.060942776
0.059139736
0.071761021
0.06995798
0.068876155
0.077891359
0.0796944
0.077891359
0.081858049
0.081497441
0.083300481
0.087627779
0.087627779
0.087988387
0.098806631
0.095921766
0.101691497
0.103494537
0.111788525
0.107100619
0.111067308
0.113230957
0.115394606
0.119000687
0.115394606
0.120803728
0.122967377
0.121524944
0.126573459
0.127655283
0.125131026
0.13594927
0.13594927
0.135228054
0.134506838
0.135228054
0.138112919
0.145325082
0.140997784
0.142079609
0.143161433
0.144964474
0.14965238
0.147488731
0.14568569
0.150373596
0.147488731
0.147849339
0.147128123
0.143882649
0.146767515
0.142079609
0.133785621
0.137752311
0.138834135
0.139194744
0.133785621
0.133064405
0.138112919
0.128015891
0.130540148
0.127294675
0.118279471
0.120082512
0.119361296
0.11647643
0.112870349
0.116837039
0.106379402
0.108182443
0.107100619
0.091594469
0.081497441
0.076088318
0.077170143
0.071039804
0.067433723
0.068876155
0.049403316
0.049763924
0.051566965
0.040027504
0.027766827
0.027045611
0.028488043
0.024521354
0.020554664
0.01550615
0.009015204
0.011900069
0.007572771
0.00576973
-0.008654595
-0.016227366
-0.020554664
-0.020915272
-0.025963786
-0.030291084
-0.036782031
-0.037503247
-0.042551761
-0.045436626
-0.036421423
-0.049042708
-0.04471541
-0.050124532
-0.05445183
-0.058418519
-0.061303384
-0.071039804
-0.073924669
-0.075006494
-0.071039804
-0.070679196
-0.0796944
-0.077530751
-0.084742914
-0.087267171
-0.080055008
-0.081136832
-0.085824738
-0.090873252
-0.093397509
-0.09520055
-0.08943082
-0.08943082
-0.095921766
-0.093758117
-0.08943082
-0.09520055
-0.095921766
-0.094479334
-0.095561158
-0.090152036
-0.087627779
-0.097364199
-0.096282374
-0.089791428
-0.087988387
-0.087627779
-0.097364199
-0.093036901
-0.097364199
-0.099527848
-0.093036901
-0.097364199
-0.103494537
-0.098085415
-0.097003591
-0.099527848
-0.096642983
-0.099888456
-0.09916724
-0.103133929
-0.102773321
-0.100609672
-0.099527848
-0.092676293
-0.096282374
-0.098446023
-0.10097028
-0.097364199
-0.09520055
-0.097003591
-0.098446023
-0.099527848
-0.098085415
-0.097003591
-0.103855145
-0.09520055
-0.098446023
-0.097003591
-0.10097028
-0.098806631
-0.089791428
-0.094839942
-0.097724807
-0.093036901
-0.095561158
-0.090512644
-0.09916724
-0.092315685
-0.090873252
-0.093758117
-0.098085415
-0.093397509
-0.090873252
-0.092315685
-0.087988387
-0.093758117
-0.094118726
-0.093397509
-0.085824738
-0.089070212
-0.088348995
-0.086906563
-0.09123386
-0.086185346
-0.087988387
-0.084742914
-0.091594469
-0.086906563
-0.088348995
-0.090512644
-0.09123386
-0.082218657
-0.088709603
-0.093397509
-0.090512644
-0.085824738
-0.089070212
-0.082579265
-0.075367102
-0.071400412
-0.070679196
-0.071400412
-0.068876155
-0.067433723
-0.072121629
-0.072842845
-0.073924669
-0.078251967
-0.075367102
-0.080776224
-0.071761021
-0.072842845
-0.072842845
-0.064548858
-0.071761021
-0.074285278
-0.068515547
-0.066712507
-0.066351898
-0.065270074
-0.069236764
-0.069236764
-0.067433723
-0.071039804
-0.073203453
-0.068515547
-0.070679196
-0.064909466
-0.073924669
-0.068876155
-0.071039804
-0.06995798
-0.068515547
-0.072482237
-0.079333792
-0.069236764
-0.076088318
-0.06599129
-0.064548858
-0.063467033
-0.06022156
-0.062385209
-0.063106425
-0.062024601
-0.063827641
-0.064548858
-0.060582168
-0.064909466
-0.069597372
-0.067794331
-0.063467033
-0.062024601
-0.063827641
-0.056976087
-0.066351898
-0.072121629
-0.057697303
-0.063106425
-0.06599129
-0.064548858
-0.066351898
-0.067073115
-0.062745817
-0.059860952
-0.064548858
-0.063827641
-0.070318588
-0.066712507
-0.06022156
-0.06418825
-0.062385209
-0.058779127
-0.062385209
-0.063106425
-0.068876155
-0.059860952
-0.062385209
-0.062385209
-0.060582168
-0.062745817
-0.071761021
-0.069597372
-0.067794331
-0.064909466
-0.063467033
-0.063467033
-0.062024601
-0.062024601
-0.063106425
-0.068515547
-0.065630682
-0.062745817
-0.070318588
-0.061663993
-0.064909466
-0.06418825
-0.065270074
-0.065270074
-0.066351898
-0.062385209
-0.066712507
-0.062745817
-0.068515547
-0.070318588
-0.065270074
-0.066712507
-0.065630682
-0.061303384
-0.06418825
-0.065270074
-0.065630682
-0.067433723
-0.064548858
-0.065270074
-0.06995798
-0.056976087
-0.062385209
-0.062024601
-0.063106425
-0.067073115
-0.064909466
-0.062385209
-0.068876155
-0.060942776
-0.066712507
-0.064909466
-0.062385209
-0.063827641
-0.066712507
-0.062385209
-0.062024601
-0.065270074
-0.062385209
-0.06599129
-0.063467033
-0.067433723
-0.067073115
-0.063106425
-0.065270074
-0.068154939
-0.061663993
-0.060942776
-0.060942776
-0.063827641
-0.063827641
-0.068154939
-0.065270074
-0.064909466
-0.065270074
-0.058779127
-0.068515547
-0.063106425
-0.067794331
-0.06022156
-0.065270074
-0.06599129
-0.063467033
-0.061663993
-0.06599129
-0.067073115
-0.064548858
-0.058779127
-0.060942776
-0.068154939
-0.063106425
-0.066712507
-0.060582168
-0.06599129
-0.061663993
-0.068876155
-0.061663993
-0.059500344
-0.062385209
-0.063106425
-0.066712507
-0.065630682
-0.064548858
-0.06022156
-0.063106425
-0.06418825
-0.065270074
-0.065270074
-0.069597372
-0.064548858
-0.062745817
-0.062745817
-0.06599129
-0.063827641
-0.061303384
-0.060942776
-0.066351898
-0.061663993
-0.069236764
-0.069236764
-0.064548858
-0.059860952
-0.063467033
-0.061663993
-0.064909466
-0.068154939
-0.06599129
-0.062024601
-0.065630682
-0.067794331
-0.072121629
-0.069597372
-0.069597372
-0.071400412
-0.081858049
-0.078973184
-0.076809535
-0.073924669
-0.073924669
-0.080055008
-0.078251967
-0.081497441
-0.068515547
-0.072121629
-0.070679196
-0.068515547
-0.067794331
-0.068515547
-0.06995798
-0.072842845
-0.073924669
-0.077170143
-0.06995798
-0.07572771
-0.080055008
-0.076088318
-0.078973184
-0.073203453
-0.077891359
-0.072121629
-0.073564061
-0.075006494
-0.062385209
-0.062745817
-0.062385209
-0.061303384
-0.065270074
-0.065270074
-0.058057911
-0.057697303
-0.059860952
-0.062385209
-0.063106425
-0.063827641
-0.054812438
-0.055533654
-0.056976087
-0.05445183
-0.047239667
-0.052288181
-0.057697303
-0.051566965
-0.047960883
-0.046157842
-0.041109328
-0.045076018
-0.04471541
-0.041830545
-0.042912369
-0.051206356
-0.042551761
-0.036782031
-0.04074872
-0.033897166
-0.037142639
-0.028848652
-0.030651692
-0.033897166
-0.025603178
-0.035700206
-0.029569868
-0.028848652
-0.032454733
-0.022718313
-0.01947284
-0.017309191
-0.015866758
-0.024881962
-0.023078921
-0.01947284
-0.020915272
-0.008293987
-0.011539461
-0.012260677
-0.00973642
-0.016948583
-0.018751623
-0.013703109
-0.020194056
-0.020554664
-0.016227366
-0.020554664
-0.020554664
-0.029930476
-0.032094125
-0.02524257
-0.019112232
-0.022718313
-0.02920926
-0.02524257
-0.029930476
-0.031372909
-0.036782031
-0.041469937
-0.033897166
-0.036782031
-0.043633585
-0.041109328
-0.047600275
-0.041830545
-0.036782031
-0.037503247
-0.051927573
-0.06022156
-0.067433723
-0.063467033
-0.065270074
-0.067433723
-0.067794331
-0.070318588
-0.076809535
-0.072482237
-0.072842845
-0.077530751
-0.076088318
-0.078612575
-0.076809535
-0.082218657
-0.079333792
-0.092315685
-0.089791428
-0.090873252
-0.090512644
-0.094118726
-0.099527848
-0.101691497
-0.097724807
-0.098446023
-0.095561158
-0.097364199
-0.094839942
-0.097364199
-0.103133929
-0.102052105
-0.097724807
-0.096642983
-0.095561158
-0.099527848
-0.103133929
-0.10097028
-0.103855145
-0.099527848
-0.102052105
-0.106018794
-0.107461227
-0.107100619
-0.106018794
-0.103133929
-0.106740011
-0.098446023
-0.100249064
-0.097364199
-0.105658186
-0.100249064
-0.10493697
-0.10097028
-0.100609672
-0.100609672
-0.099888456
-0.101691497
-0.101330888
-0.100609672
-0.102052105
-0.103133929
-0.10097028
-0.107100619
-0.112149133
-0.108903659
-0.105658186
-0.113952173
-0.108182443
-0.109624876
-0.105658186
-0.104576362
-0.106018794
-0.108543051
-0.105658186
-0.108182443
-0.107100619
-0.117918863
-0.124049201
-0.127294675
-0.129458324
-0.132343189
-0.13594927
-0.143522041
-0.144603866
-0.148209947
-0.15542211
-0.160470624
-0.164437314
-0.165519138
-0.166600962
-0.167682787
-0.166961571
-0.152897853
-0.147128123
-0.137031095
-0.115755214
-0.095921766
-0.070679196
-0.040388112
-0.008293987
0.020554664
0.058418519
0.090873252
0.125852242
0.170207044
0.201940561
0.238001375
0.264686378
0.293895637
0.323104897
0.348347467
0.379720376
0.396668958
0.419387271
0.432008556
0.433450989
0.428763083
0.417584231
0.4118145
0.390178012
0.36529605
0.338971655
0.298583543
0.214201237
0.176337382
0.135228054
0.089791428
0.058057911
0.033175949
0.003245473
-0.022357705
-0.046157842
-0.066351898
-0.077170143
-0.090512644
-0.095921766
-0.102773321
-0.112870349
-0.117918863
-0.126573459
-0.115033998
-0.11647643
-0.118279471
-0.124049201
-0.119000687
-0.124049201
-0.127294675
-0.12621285
-0.124770418
-0.125852242
-0.119361296
-0.115033998
-0.106740011
-0.107821835
-0.109264268
-0.093758117
-0.087267171
-0.080776224
-0.073924669
-0.077891359
-0.07572771
-0.066712507
-0.066351898
-0.06599129
-0.060582168
-0.062024601
-0.063106425
-0.064548858
-0.062024601
-0.06418825
-0.067794331
-0.067433723
-0.069236764
-0.072842845
-0.067073115
-0.083300481
-0.081136832
-0.076809535
-0.073564061
-0.077891359
-0.071039804
-0.075006494
-0.07572771
-0.075006494
-0.069597372
-0.080055008
-0.083300481
-0.081497441
-0.082218657
-0.082579265
-0.080415616
-0.078973184
-0.082939873
-0.076809535
-0.07572771
-0.077891359
-0.077530751
-0.077891359
-0.080415616
-0.083661089
-0.081136832
-0.077530751
-0.070318588
-0.064909466
-0.067794331
-0.063467033
-0.067794331
-0.062385209
-0.063106425
-0.057697303
-0.061303384
-0.056615479
-0.073564061
-0.055894262
-0.052648789
-0.053370005
-0.049763924
-0.05625487
-0.053730613
-0.051566965
-0.050124532
-0.045076018
-0.033536557
-0.029569868
-0.033897166
-0.034257774
-0.037503247
-0.026324395
-0.030651692
-0.032094125
-0.028127435
-0.032094125
-0.028127435
-0.033175949
-0.027766827
-0.026324395
-0.025963786
-0.016948583
-0.020915272
-0.018751623
-0.012981893
-0.012981893
-0.014784934
-0.016227366
-0.013703109
-0.006490947
-0.006130338
-0.009015204
-0.008654595
-0.003245473
0.002524257
0.000360608
-0.002524257
0.001081824
0.002163649
0.00576973
0.006130338
0.008654595
0.012981893
0.014424326
0.018751623
0.031372909
0.024881962
0.028488043
0.039306288
0.032094125
0.040027504
0.037503247
0.042191153
0.039666896
0.046879059
0.044354802
0.046518451
0.053009397
0.049403316
0.056976087
0.056976087
0.055533654
0.053009397
0.06022156
0.067794331
0.067433723
0.074645886
0.074285278
0.073924669
0.082218657
0.084382306
0.08943082
0.087988387
0.094118726
0.093036901
0.094479334
0.093758117
0.097003591
0.100609672
0.104576362
0.107821835
0.108903659
0.112509741
0.113591565
0.121164336
0.116115822
0.119361296
0.121885553
0.122246161
0.127294675
0.129097716
0.128015891
0.135588662
0.131261364
0.129097716
0.130540148
0.142440217
0.131261364
0.138834135
0.145325082
0.145325082
0.138473527
0.142079609
0.143161433
0.147128123
0.142440217
0.14965238
0.144964474
0.150734204
0.148931163
0.150012988
0.144243258
0.131982581
0.142079609
0.138473527
0.132343189
0.137031095
0.136309878
0.140276568
0.134867446
0.133785621
0.132343189
0.122606769
0.124049201
0.116837039
0.117918863
0.109985484
0.111427916
0.108903659
0.109624876
0.107821835
0.087988387
0.086906563
0.085824738
0.072842845
0.080415616
0.064548858
0.069236764
0.067794331
0.059500344
0.05445183
0.050124532
0.041109328
0.032815341
0.033536557
0.028848652
0.027045611
0.01947284
0.015866758
0.012260677
0.011539461
0.007212163
0.000721216
-0.007212163
-0.02127588
-0.020915272
-0.028488043
-0.028488043
-0.028488043
-0.028488043
-0.028488043
-0.042191153
-0.043994194
-0.043994194
-0.043994194
-0.046879059
-0.050845748
-0.053009397
-0.058779127
-0.058418519
-0.058418519
-0.058418519
-0.058418519
-0.076088318
-0.072842845
-0.075367102
-0.078251967
-0.081136832
-0.08943082
-0.073924669
-0.083300481
-0.084021698
-0.084021698
-0.084021698
-0.09123386
-0.093036901
-0.094479334
-0.091594469
-0.086906563
-0.087627779
-0.087627779
-0.09520055
-0.09916724
-0.09916724
-0.09916724
-0.09916724
-0.090152036
-0.092315685
-0.092315685
-0.092315685
-0.092315685
-0.092315685
-0.090152036
-0.089070212
-0.094118726
-0.095921766
-0.105297578
-0.102052105
-0.101330888
-0.094839942
-0.095561158
-0.102412713
-0.09123386
-0.096642983
-0.103133929
-0.095921766
-0.096282374
-0.096282374
-0.096282374
-0.096282374
-0.102052105
-0.102052105
-0.096642983
-0.096642983
-0.096642983
-0.097724807
-0.097724807
-0.098446023
-0.098446023
-0.098446023
-0.091955077
-0.091594469
-0.094839942
-0.098806631
-0.098806631
-0.090512644
-0.091955077
-0.088348995
-0.088348995
-0.088348995
-0.088348995
-0.088348995
-0.089070212
-0.091594469
-0.09123386
-0.089791428
-0.085103522
-0.087267171
-0.082939873
-0.088348995
-0.094118726
-0.099527848
-0.094839942
-0.087627779
-0.088348995
-0.085103522
-0.088709603
-0.088709603
-0.088709603
-0.088709603
-0.088709603
-0.070679196
-0.070679196
-0.070679196
-0.070679196
-0.070679196
-0.070679196
-0.073924669
-0.073924669
-0.073924669
-0.075006494
-0.07572771
-0.074285278
-0.073924669
-0.067794331
-0.060942776
-0.060942776
-0.060942776
-0.074285278
-0.068876155
-0.071039804
-0.068515547
-0.069236764
-0.065630682
-0.066351898
-0.068515547
-0.068515547
-0.068515547
-0.068515547
-0.068515547
-0.072842845
-0.064909466
-0.064909466
-0.064909466
-0.068876155
-0.068515547
-0.073203453
-0.073203453
-0.070679196
-0.070679196
-0.070679196
-0.065270074
-0.063106425
-0.067794331
-0.06418825
-0.065630682
-0.055533654
-0.059500344
-0.060942776
-0.058779127
-0.064548858
-0.065630682
-0.065270074
-0.052288181
-0.067073115
-0.064909466
-0.067794331
-0.062385209
-0.062385209
-0.062385209
-0.071039804
-0.067073115
-0.067073115
-0.067073115
-0.067073115
-0.067073115
-0.068154939
-0.068154939
-0.068154939
-0.068154939
-0.068154939
-0.068154939
-0.068154939
-0.064909466
-0.062385209
-0.062385209
-0.067073115
-0.071400412
-0.062024601
-0.062024601
-0.062024601
-0.062024601
-0.062024601
-0.065630682
-0.066712507
-0.066712507
-0.066712507
-0.066712507
-0.066712507
-0.061303384
-0.06418825
-0.06418825
-0.06418825
-0.064909466
-0.067073115
-0.062385209
-0.062385209
-0.063467033
-0.063106425
-0.066351898
-0.057697303
-0.062745817
-0.06599129
-0.062385209
-0.062385209
-0.058779127
-0.062745817
-0.065630682
-0.060942776
-0.063106425
-0.063106425
-0.064909466
-0.061663993
-0.062745817
-0.063467033
-0.063467033
-0.063467033
-0.066712507
-0.065270074
-0.062385209
-0.064548858
-0.064548858
-0.068515547
-0.067794331
-0.067794331
-0.063827641
-0.063827641
-0.063827641
-0.063827641
-0.065270074
-0.06418825
-0.061663993
-0.064909466
-0.06022156
-0.068515547
-0.06599129
-0.059860952
-0.059500344
-0.062745817
-0.068876155
-0.066351898
-0.062024601
-0.061303384
-0.062745817
-0.062745817
-0.062745817
-0.066712507
-0.06418825
-0.062745817
-0.062745817
-0.062745817
-0.062745817
-0.062745817
-0.067073115
-0.064548858
-0.064548858
-0.061663993
-0.061663993
-0.061663993
-0.059139736
-0.057697303
-0.06599129
-0.068154939
-0.065630682
-0.06599129
-0.063467033
-0.061663993
-0.066712507
-0.066712507
-0.060942776
-0.062024601
-0.062024601
-0.05625487
-0.05625487
-0.05625487
-0.05625487
-0.063467033
-0.063467033
-0.06599129
-0.06599129
-0.06418825
-0.069236764
-0.06599129
-0.06599129
-0.06599129
-0.06599129
-0.06599129
-0.060942776
-0.062024601
-0.064909466
-0.062024601
-0.06022156
-0.062385209
-0.062024601
-0.06995798
-0.062385209
-0.062745817
-0.062745817
-0.062745817
-0.063827641
-0.063827641
-0.060582168
-0.062385209
-0.062385209
-0.068876155
-0.060942776
-0.060942776
-0.060942776
-0.060942776
-0.060942776
-0.077530751
-0.077530751
-0.077530751
-0.077530751
-0.077530751
-0.077530751
-0.082218657
-0.081136832
-0.082579265
-0.076448927
-0.074645886
-0.07572771
-0.080055008
-0.078251967
-0.078612575
-0.073203453
-0.068515547
-0.064548858
-0.06599129
-0.077170143
-0.071761021
-0.071761021
-0.071761021
-0.071761021
-0.071761021
-0.069236764
-0.06599129
-0.06599129
-0.06599129
-0.069236764
-0.069236764
-0.06995798
-0.072482237
-0.072842845
-0.067794331
-0.067794331
-0.069236764
-0.067433723
-0.078251967
-0.081136832
-0.078612575
-0.077891359
-0.073924669
-0.072842845
-0.073203453
-0.078251967
-0.074285278
-0.072482237
-0.072482237
-0.070679196
-0.070679196
-0.065630682
-0.064909466
-0.064909466
-0.055533654
-0.055533654
-0.055533654
-0.055533654
-0.055533654
-0.065630682
-0.065630682
-0.065630682
-0.065630682
-0.065630682
-0.050845748
-0.052648789
-0.049763924
-0.053730613
-0.045797234
-0.050124532
-0.052288181
-0.046157842
-0.042912369
-0.045436626
-0.045436626
-0.038585071
-0.03894568
-0.039666896
-0.039666896
-0.039666896
-0.039666896
-0.039666896
-0.033897166
-0.032094125
-0.032094125
-0.032094125
-0.032094125
-0.032094125
-0.027766827
-0.031372909
-0.031372909
-0.031372909
-0.031372909
-0.031372909
-0.014784934
-0.01550615
-0.018751623
-0.015866758
-0.018391015
-0.014063718
-0.012260677
-0.011900069
-0.014424326
-0.020554664
-0.014784934
-0.012260677
-0.012260677
-0.012260677
-0.012260677
-0.012260677
-0.012260677
-0.028848652
-0.027406219
-0.027406219
-0.027406219
-0.027406219
-0.023800137
-0.028488043
-0.027766827
-0.027766827
-0.027766827
-0.027766827
-0.04074872
-0.037142639
-0.04074872
-0.043272977
-0.043272977
-0.046518451
-0.047600275
-0.042191153
-0.046518451
-0.042912369
-0.058057911
-0.067073115
-0.06599129
-0.063467033
-0.064548858
-0.064909466
-0.07572771
-0.075006494
-0.069236764
-0.076448927
-0.076448927
-0.076448927
-0.076448927
-0.076448927
-0.0796944
-0.0796944
-0.085103522
-0.085103522
-0.085103522
-0.085103522
-0.085103522
-0.093397509
-0.095561158
-0.095561158
-0.094839942
-0.096282374
-0.093397509
-0.098806631
-0.098806631
-0.095921766
-0.101691497
-0.10097028
-0.097724807
-0.09916724
-0.103494537
-0.099888456
-0.107100619
-0.106018794
-0.10493697
-0.106018794
-0.108182443
-0.10493697
-0.102773321
-0.102052105
-0.103855145
-0.099888456
-0.10493697
-0.103133929
-0.103855145
-0.100249064
-0.099888456
-0.097003591
-0.098085415
-0.106740011
-0.104576362
-0.102412713
-0.102412713
-0.105658186
-0.102052105
-0.10493697
-0.104576362
-0.103855145
-0.101691497
-0.102412713
-0.107461227
-0.113230957
-0.111067308
-0.109264268
-0.10493697
-0.107821835
-0.106740011
-0.111067308
-0.108543051
-0.108543051
-0.1107067
-0.112509741
-0.12044312
-0.127655283
-0.13017954
-0.137391703
-0.132703797
-0.135588662
-0.139194744
-0.141719001
-0.152176637
-0.156143326
-0.16119184
-0.169846436
-0.167322179
-0.164797922
-0.170567652
-0.165879746
-0.158667583
-0.146767515
-0.140997784
-0.135588662
-0.114312782
-0.094118726
-0.063467033
-0.038224463
-0.008654595
0.023800137
0.064548858
0.076088318
0.11647643
0.188237451
0.228625563
0.271537932
0.296419894
0.330677668
0.353395981
0.377917335
0.399914432
0.424796393
0.435975246
0.432729773
0.418305447
0.418666055
0.407847811
0.386932538
0.36132936
0.334644358
0.285962258
0.274422797
0.228986171
0.183549545
0.143161433
0.105658186
0.065270074
0.031733517
0.001803041
-0.029930476
-0.049403316
-0.068515547
-0.078973184
-0.092676293
-0.099527848
-0.102052105
-0.115394606
-0.110346092
-0.116115822
-0.116837039
-0.117558255
-0.121524944
-0.124049201
-0.123327985
-0.122967377
-0.126573459
-0.127294675
-0.128376499
-0.120082512
-0.113230957
-0.107461227
-0.109264268
-0.103494537
-0.106018794
-0.102412713
-0.08943082
-0.091955077
-0.080415616
-0.07572771
-0.074645886
-0.073924669
-0.066351898
-0.065630682
-0.064909466
-0.065270074
-0.06995798
-0.061303384
-0.07572771
-0.082579265
-0.081858049
-0.077530751
-0.084021698
-0.084382306
-0.074645886
-0.080415616
-0.075006494
-0.081858049
-0.082579265
-0.080055008
-0.07572771
-0.073203453
-0.076448927
-0.074645886
-0.067433723
-0.06599129
-0.060582168
-0.05625487
-0.069236764
-0.060582168
-0.063467033
-0.05625487
-0.05625487
-0.053730613
-0.055173046
-0.058057911
-0.061303384
-0.053730613
-0.05625487
-0.051927573
-0.048321491
-0.048682099
-0.048321491
-0.046518451
-0.039666896
-0.033175949
-0.032094125
-0.039666896
-0.031733517
-0.033897166
-0.029569868
-0.036782031
-0.03497899
-0.031372909
-0.025603178
-0.024881962
-0.026685003
-0.025603178
-0.01947284
-0.022718313
-0.021997097
-0.01947284
-0.017669799
-0.013703109
-0.012621285
-0.007933379
-0.014424326
-0.010097028
-0.010818244
-0.004327298
-0.005048514
-0.001081824
-0.012981893
-0.002163649
0.006130338
0.009015204
0.000721216
0.007933379
0.008293987
0.004687906
0.002884865
0.003245473
0.018030407
0.018751623
0.024521354
0.033897166
0.034257774
0.032815341
0.033897166
0.035700206
0.039306288
0.039306288
0.043272977
0.042191153
0.039666896
0.05048514
0.051927573
0.050124532
0.053730613
0.053009397
0.053730613
0.056615479
0.060942776
0.066712507
0.072121629
0.076088318
0.078251967
0.077891359
0.081858049
0.078251967
0.086906563
0.086906563
0.086545955
0.093036901
0.093036901
0.097003591
0.099527848
0.109264268
0.109264268
0.112870349
0.108543051
0.118279471
0.11467339
0.118279471
0.121885553
0.124770418
0.125491634
0.122967377
0.123327985
0.123327985
0.126934067
0.127294675
0.13414623
0.130900756
0.133425013
0.136670487
0.145325082
0.142800825
0.140276568
0.146767515
0.139555352
0.140276568
0.147849339
0.149291772
0.142079609
0.148931163
0.149291772
0.150373596
0.148570555
0.15542211
0.143882649
0.142800825
0.137391703
0.140637176
0.13594927
0.136309878
0.135228054
0.137391703
0.137031095
0.137031095
0.131982581
0.129097716
0.126934067
0.123327985
0.123327985
0.120082512
0.116837039
0.1107067
0.105658186
0.109985484
0.099888456
0.104215754
0.088348995
0.086545955
0.077170143
0.077530751
0.076448927
0.06418825
0.066351898
0.06599129
0.060582168
0.054091222
0.045076018
0.036060814
0.032815341
0.033536557
0.026324395
0.024881962
0.012621285
0.019833448
0.015145542
0.010457636
0.004327298
0
-0.005048514
-0.014063718
-0.020554664
-0.023800137
-0.024881962
-0.026324395
-0.036421423
-0.03497899
-0.04471541
-0.03497899
-0.036060814
-0.045797234
-0.058057911
-0.055533654
-0.05625487
-0.061303384
-0.063106425
-0.069236764
-0.070318588
-0.072842845
-0.078612575
-0.075006494
-0.072121629
-0.075006494
-0.076448927
-0.080415616
-0.082939873
-0.081497441
-0.080776224
-0.083661089
-0.087267171
-0.09520055
-0.094839942
-0.091594469
-0.093036901
-0.093397509
-0.095561158
-0.094839942
-0.09123386
-0.101330888
-0.096642983
-0.088709603
-0.086906563
-0.084021698
-0.087988387
-0.101691497
-0.090512644
-0.089791428
-0.091955077
-0.096282374
-0.090873252
-0.093036901
-0.093036901
-0.094479334
-0.094118726
-0.094118726
-0.098806631
-0.095921766
-0.102052105
-0.094839942
-0.101691497
-0.099527848
-0.09520055
-0.101691497
-0.09916724
-0.102412713
-0.094839942
-0.095561158
-0.097364199
-0.096282374
-0.094118726
-0.094839942
-0.097724807
-0.095561158
-0.103494537
-0.103133929
-0.097003591
-0.098085415
-0.096642983
-0.097003591
-0.102773321
-0.096282374
-0.092676293
-0.097364199
-0.093758117
-0.09123386
-0.093758117
-0.090873252
-0.094118726
-0.093758117
-0.094118726
-0.094118726
-0.093397509
-0.09520055
-0.090152036
-0.095561158
-0.09123386
-0.093036901
-0.094118726
-0.094479334
-0.097364199
-0.090873252
-0.090512644
-0.084021698
-0.091955077
-0.0796944
-0.086906563
-0.087627779
-0.093036901
-0.08546413
-0.085103522
-0.093397509
-0.094118726
-0.088348995
-0.086545955
-0.086906563
-0.086185346
-0.085824738
-0.087267171
-0.089791428
-0.094118726
-0.086906563
-0.087988387
-0.075367102
-0.07572771
-0.078612575
-0.074285278
-0.077170143
-0.0796944
-0.073564061
-0.077170143
-0.074645886
-0.067433723
-0.068876155
-0.071400412
-0.072121629
-0.072482237
-0.074645886
-0.071761021
-0.06995798
-0.067794331
-0.06599129
-0.062745817
-0.071039804
-0.074285278
-0.064909466
-0.071039804
-0.071039804
-0.071761021
-0.068515547
-0.072121629
-0.06995798
-0.068154939
-0.070318588
-0.067073115
-0.068515547
-0.068154939
-0.069597372
-0.067073115
-0.070679196
-0.070318588
-0.067073115
-0.076088318
-0.069236764
-0.062385209
-0.062024601
-0.062024601
-0.06418825
-0.062024601
-0.063106425
-0.067433723
-0.06599129
-0.06418825
-0.063827641
-0.059500344
-0.066712507
-0.068154939
-0.067073115
-0.06022156
-0.063827641
-0.066712507
-0.062745817
-0.067433723
-0.063467033
-0.063827641
-0.066712507
-0.063827641
-0.055894262
-0.066351898
-0.06022156
-0.064909466
-0.059860952
-0.062385209
-0.060942776
-0.058779127
-0.062745817
-0.065630682
-0.063467033
-0.059500344
-0.066351898
-0.063106425
-0.066712507
-0.062745817
-0.064548858
-0.062745817
-0.068876155
-0.061663993
-0.063106425
-0.059500344
-0.066351898
-0.062385209
-0.065270074
-0.064909466
-0.064548858
-0.067794331
-0.064909466
-0.067794331
-0.062385209
-0.062745817
-0.06022156
-0.063106425
-0.059139736
-0.062024601
-0.060942776
-0.06599129
-0.06599129
-0.068154939
-0.059139736
-0.06418825
-0.059500344
-0.067433723
-0.064548858
-0.070318588
-0.071400412
-0.064548858
-0.062745817
-0.064909466
-0.061663993
-0.062024601
-0.057697303
-0.060942776
-0.062745817
-0.064909466
-0.062024601
-0.059500344
-0.070679196
-0.06995798
-0.065270074
-0.060942776
-0.062024601
-0.064548858
-0.063827641
-0.060582168
-0.067433723
-0.065630682
-0.064548858
-0.056615479
-0.059500344
-0.062745817
-0.065270074
-0.061663993
-0.068154939
-0.069236764
-0.069236764
-0.063106425
-0.060942776
-0.06418825
-0.06022156
-0.063467033
-0.067794331
-0.060942776
-0.063106425
-0.065630682
-0.061663993
-0.067073115
-0.06599129
-0.063467033
-0.060942776
-0.06418825
-0.066351898
-0.064909466
-0.063106425
-0.062385209
-0.062745817
-0.063467033
-0.064548858
-0.06418825
-0.059500344
-0.060942776
-0.063106425
-0.063827641
-0.063827641
-0.064548858
-0.063106425
-0.060582168
-0.06418825
-0.062745817
-0.064909466
-0.067073115
-0.061303384
-0.062024601
-0.064548858
-0.06599129
-0.058418519
-0.059139736
-0.067794331
-0.063106425
-0.063106425
-0.069236764
-0.060582168
-0.061303384
-0.063106425
-0.063106425
-0.058418519
-0.067794331
-0.063106425
-0.06418825
-0.061663993
-0.064548858
-0.060942776
-0.063827641
-0.068876155
-0.06995798
-0.060582168
-0.070318588
-0.064548858
-0.06022156
-0.058779127
-0.058418519
-0.06418825
-0.070318588
-0.063827641
-0.066351898
-0.070318588
-0.075367102
-0.074645886
-0.079333792
-0.082579265
-0.076809535
-0.080415616
-0.082579265
-0.080055008
-0.082579265
-0.081858049
-0.080776224
-0.071400412
-0.086545955
-0.082939873
-0.080055008
-0.082579265
-0.075006494
-0.071039804
-0.069236764
-0.068154939
-0.068154939
-0.073203453
-0.064909466
-0.066351898
-0.076088318
-0.077170143
-0.076088318
-0.073924669
-0.068154939
-0.075367102
-0.070679196
-0.070318588
-0.065270074
-0.072482237
-0.063467033
-0.057336695
-0.062024601
-0.06022156
-0.063467033
-0.064909466
-0.055533654
-0.054812438
-0.051566965
-0.052288181
-0.056976087
-0.057336695
-0.043633585
-0.048321491
-0.049403316
-0.055173046
-0.053009397
-0.047960883
-0.05048514
-0.042912369
-0.048321491
-0.040388112
-0.037142639
-0.033536557
-0.039306288
-0.0310123
-0.031372909
-0.034618382
-0.032454733
-0.02524257
-0.031733517
-0.029930476
-0.034257774
-0.036421423
-0.036060814
-0.029569868
-0.033175949
-0.026324395
-0.024160746
-0.019833448
-0.01550615
-0.020554664
-0.021997097
-0.024521354
-0.018391015
-0.01550615
-0.013703109
-0.008654595
-0.012621285
-0.017669799
-0.01947284
-0.011178852
-0.018751623
-0.012981893
-0.016587975
-0.018391015
-0.016948583
-0.022718313
-0.027045611
-0.027766827
-0.022357705
-0.029569868
-0.027406219
-0.028848652
-0.023800137
-0.031733517
-0.034257774
-0.035339598
-0.037142639
-0.038224463
-0.042551761
-0.04074872
-0.041830545
-0.041109328
-0.045797234
-0.043994194
-0.043272977
-0.048682099
-0.05048514
-0.064548858
-0.064909466
-0.060942776
-0.065270074
-0.071039804
-0.064909466
-0.074285278
-0.071400412
-0.07572771
-0.077891359
-0.072482237
-0.077891359
-0.082939873
-0.086906563
-0.084382306
-0.089791428
-0.094118726
-0.094479334
-0.091594469
-0.093036901
-0.101691497
-0.094479334
-0.093758117
-0.095921766
-0.097364199
-0.099888456
-0.097003591
-0.096282374
-0.096642983
-0.096282374
-0.098446023
-0.100609672
-0.102773321
-0.102773321
-0.103855145
-0.097364199
-0.101330888
-0.098806631
-0.100249064
-0.100249064
-0.099527848
-0.105658186
-0.111067308
-0.09520055
-0.103133929
-0.099527848
-0.101330888
-0.101330888
-0.107821835
-0.106740011
-0.101691497
-0.103133929
-0.103855145
-0.100609672
-0.107461227
-0.105297578
-0.104576362
-0.105658186
-0.099527848
-0.105297578
-0.100609672
-0.100609672
-0.107100619
-0.111427916
-0.116837039
-0.106018794
-0.109624876
-0.106740011
-0.106379402
-0.109264268
-0.109985484
-0.108903659
-0.106018794
-0.105658186
-0.118279471
-0.120803728
-0.118640079
-0.131261364
-0.126934067
-0.128015891
-0.133425013
-0.142440217
-0.142079609
-0.149291772
-0.153258461
-0.156503934
-0.162273665
-0.161913057
-0.163355489
-0.163355489
-0.163716097
-0.152897853
-0.151816029
-0.136670487
-0.125491634
-0.1107067
-0.103133929
-0.076809535
-0.047239667
-0.023078921
0.010818244
0.047600275
0.090152036
0.160110016
0.203382993
0.23114982
0.276225838
0.310483612
0.335726182
0.358444495
0.379359767
0.411093284
0.432008556
0.433450989
0.430926732
0.424075177
0.421190312
0.412535717
0.397029566
0.375753686
0.338971655
0.304353273
0.261080296
0.222495225
0.174173733
0.129818932
0.093036901
0.056615479
0.023439529
-0.004687906
-0.034257774
-0.049042708
-0.072842845
-0.079333792
-0.08943082
-0.103494537
-0.108903659
-0.1107067
-0.108182443
-0.113230957
-0.116115822
-0.121885553
-0.121164336
-0.115755214
-0.13017954
-0.128737107
-0.124770418
-0.130540148
-0.122246161
-0.113952173
-0.108182443
-0.111788525
-0.110346092
-0.108903659
-0.104215754
-0.086545955
-0.086185346
-0.077530751
-0.071761021
-0.075367102
-0.071761021
-0.062385209
-0.064909466
-0.071761021
-0.072482237
-0.063467033
-0.061663993
-0.059860952
-0.064548858
-0.070679196
-0.072121629
-0.073564061
-0.073924669
-0.06995798
-0.071039804
-0.076448927
-0.082939873
-0.072121629
-0.077170143
-0.076448927
-0.072842845
-0.071400412
-0.072482237
-0.072482237
-0.086545955
-0.08546413
-0.082939873
-0.081858049
-0.082218657
-0.083661089
-0.080055008
-0.082218657
-0.080415616
-0.072121629
-0.081136832
-0.0796944
-0.082579265
-0.081497441
-0.080415616
-0.081858049
-0.078973184
-0.071400412
-0.06418825
-0.063106425
-0.062385209
-0.064548858
-0.063106425
-0.055173046
-0.064909466
-0.064548858
-0.054812438
-0.051206356
-0.058779127
-0.05048514
-0.055894262
-0.054091222
-0.055173046
-0.045797234
-0.050124532
-0.049763924
-0.054091222
-0.048682099
-0.037503247
-0.033897166
-0.035339598
-0.036060814
-0.036060814
-0.032094125
-0.036060814
-0.032094125
-0.035339598
-0.025603178
-0.023439529
-0.029569868
-0.022718313
-0.02127588
-0.020554664
-0.022357705
-0.025603178
-0.020554664
-0.012981893
-0.010457636
-0.006490947
-0.015866758
-0.013342501
-0.006130338
-0.004687906
-0.009015204
-0.006490947
-0.005048514
-0.000721216
0.00396669
0.004327298
0.000721216
0.004327298
0.005048514
0.006851555
0.006851555
0.007572771
0.017309191
0.020554664
0.026685003
0.026685003
0.0310123
0.036060814
0.043272977
0.043994194
0.045436626
0.04471541
0.042551761
0.042912369
0.047600275
0.054091222
0.051206356
0.052288181
0.056976087
0.058057911
0.066351898
0.06418825
0.067073115
0.068515547
0.069236764
0.071400412
0.071400412
0.078612575
0.080776224
0.078251967
0.087988387
0.089791428
0.092676293
0.089791428
0.097364199
0.096282374
0.104215754
0.102773321
0.103855145
0.112509741
0.109985484
0.11647643
0.121885553
0.125852242
0.117918863
0.122606769
0.115755214
0.122967377
0.123688593
0.126573459
0.133425013
0.137031095
0.134506838
0.134506838
0.133064405
0.132343189
0.138473527
0.13991596
0.147128123
0.142800825
0.141719001
0.144243258
0.14568569
0.150012988
0.147488731
0.143882649
0.145325082
0.150734204
0.141358392
0.144964474
0.142440217
0.141358392
0.133425013
0.138473527
0.133064405
0.135228054
0.141358392
0.138112919
0.130900756
0.128376499
0.126573459
0.117197647
0.11647643
0.117197647
0.113952173
0.112509741
0.108903659
0.110346092
0.107461227
0.101691497
0.088709603
0.0796944
0.081136832
0.075006494
0.072482237
0.073564061
0.067794331
0.06599129
0.056615479
0.055533654
0.050845748
0.033897166
0.033175949
0.029930476
0.032094125
0.016587975
0.016948583
0.015145542
0.011900069
0.002524257
0.004327298
-0.002163649
-0.018391015
-0.024160746
-0.027766827
-0.028488043
-0.032815341
-0.033175949
-0.035339598
-0.043633585
-0.045076018
-0.043994194
-0.048321491
-0.049763924
-0.051927573
-0.057336695
-0.062745817
-0.061303384
-0.065270074
-0.068154939
-0.070679196
-0.072482237
-0.076448927
-0.072842845
-0.079333792
-0.082939873
-0.0796944
-0.084382306
-0.082218657
-0.088709603
-0.085824738
-0.092676293
-0.088348995
-0.093036901
-0.09520055
-0.094479334
-0.092676293
-0.098806631
-0.096642983
-0.102412713
-0.10493697
-0.095561158
-0.083300481
-0.087988387
-0.094118726
-0.088709603
-0.094839942
-0.093758117
-0.089791428
-0.095561158
-0.09123386
-0.095561158
-0.098085415
-0.09916724
-0.102412713
-0.095921766
-0.097003591
-0.099888456
-0.095561158
-0.096282374
-0.105297578
-0.090512644
-0.095921766
-0.095921766
-0.10097028
-0.097364199
-0.102052105
-0.094839942
-0.094839942
-0.094479334
-0.099888456
-0.104215754
-0.097003591
-0.097724807
-0.099888456
-0.095561158
-0.094479334
-0.100249064
-0.098806631
-0.099527848
-0.095561158
-0.095561158
-0.100249064
-0.09520055
-0.093036901
-0.09123386
-0.092676293
-0.090152036
-0.094479334
-0.086906563
-0.080776224
-0.088348995
-0.086906563
-0.091594469
-0.087267171
-0.090512644
-0.090873252
-0.08943082
-0.087627779
-0.089070212
-0.092315685
-0.08943082
-0.088348995
-0.090152036
-0.087627779
-0.088348995
-0.083661089
-0.082579265
-0.077891359
-0.076448927
-0.06995798
-0.073203453
-0.066712507
-0.071039804
-0.06995798
-0.070318588
-0.073564061
-0.074645886
-0.077170143
-0.073564061
-0.07572771
-0.065270074
-0.06599129
-0.072482237
-0.072482237
-0.071039804
-0.065630682
-0.063467033
-0.068515547
-0.066351898
-0.072842845
-0.066351898
-0.067794331
-0.067073115
-0.065270074
-0.069597372
-0.067433723
-0.073564061
-0.071039804
-0.068515547
-0.06599129
-0.063106425
-0.068876155
-0.072482237
-0.070318588
-0.067073115
-0.064909466
-0.064909466
-0.063827641
-0.060942776
-0.069236764
-0.06995798
-0.061663993
-0.061303384
-0.066351898
-0.061663993
-0.067073115
-0.063467033
-0.059500344
-0.064909466
-0.063467033
-0.066351898
-0.066712507
-0.068876155
-0.060582168
-0.057697303
-0.061303384
-0.063467033
-0.061303384
-0.067073115
-0.066712507
-0.068515547
-0.061303384
-0.063467033
-0.06599129
-0.064909466
-0.063827641
-0.070679196
-0.060582168
-0.062024601
-0.06022156
-0.064909466
-0.066351898
-0.065630682
-0.063827641
-0.063827641
-0.068515547
-0.069236764
-0.070318588
-0.067794331
-0.062745817
-0.062385209
-0.062385209
-0.064909466
-0.063827641
-0.063467033
-0.067433723
-0.063106425
-0.059139736
-0.063827641
-0.057697303
-0.059139736
-0.059500344
-0.063467033
-0.063106425
-0.063827641
-0.063106425
-0.065630682
-0.062385209
-0.062745817
-0.067794331
-0.065630682
-0.06599129
-0.062745817
-0.066351898
-0.058418519
-0.059860952
-0.065630682
-0.068515547
-0.06418825
-0.060582168
-0.062745817
-0.067073115
-0.065270074
-0.060942776
-0.062024601
-0.062745817
-0.060942776
-0.062385209
-0.062385209
-0.058779127
-0.06418825
-0.070679196
-0.067794331
-0.065270074
-0.057697303
-0.062024601
-0.062385209
-0.061663993
-0.06022156
-0.06022156
-0.06418825
-0.063106425
-0.063106425
-0.061303384
-0.062745817
-0.056615479
-0.065270074
-0.060942776
-0.067433723
-0.06418825
-0.067073115
-0.063467033
-0.062745817
-0.063827641
-0.063106425
-0.067073115
-0.066351898
-0.065270074
-0.06418825
-0.06418825
-0.064548858
-0.060582168
-0.067073115
-0.065630682
-0.060582168
-0.062385209
-0.062385209
-0.063827641
-0.069236764
-0.066712507
-0.062385209
-0.061663993
-0.065270074
-0.062745817
-0.06418825
-0.06418825
-0.066351898
-0.065630682
-0.069236764
-0.060942776
-0.06418825
-0.067433723
-0.06599129
-0.067433723
-0.064548858
-0.065630682
-0.06599129
-0.069597372
-0.061663993
-0.059860952
-0.069236764
-0.063467033
-0.058779127
-0.06599129
-0.060582168
-0.068876155
-0.062745817
-0.06599129
-0.063827641
-0.064548858
-0.060942776
-0.062385209
-0.060582168
-0.062385209
-0.055173046
-0.063106425
-0.059500344
-0.063106425
-0.068876155
-0.067433723
-0.06599129
-0.067794331
-0.072482237
-0.071039804
-0.065630682
-0.068154939
-0.071761021
-0.083300481
-0.085103522
-0.076809535
-0.078612575
-0.081136832
-0.079333792
-0.077170143
-0.068154939
-0.076448927
-0.077530751
-0.078251967
-0.080776224
-0.076809535
-0.075006494
-0.074645886
-0.069597372
-0.068876155
-0.063467033
-0.068154939
-0.068515547
-0.067794331
-0.06599129
-0.066712507
-0.069236764
-0.068154939
-0.072121629
-0.070318588
-0.061663993
-0.06418825
-0.071400412
-0.066712507
-0.067794331
-0.06418825
-0.073564061
-0.061663993
-0.071039804
-0.075006494
-0.077530751
-0.073564061
-0.077530751
-0.080415616
-0.070679196
-0.068876155
-0.07572771
-0.071761021
-0.074645886
-0.073203453
-0.071039804
-0.066351898
-0.067794331
-0.06599129
-0.063106425
-0.062745817
-0.063467033
-0.063106425
-0.056976087
-0.058779127
-0.060942776
-0.057697303
-0.05445183
-0.047239667
-0.053009397
-0.058779127
-0.053009397
-0.049042708
-0.050124532
-0.053370005
-0.053370005
-0.049042708
-0.04471541
-0.043633585
-0.040027504
-0.041830545
-0.045076018
-0.042551761
-0.035339598
-0.041469937
-0.032454733
-0.037503247
-0.036421423
-0.029930476
-0.0310123
-0.036060814
-0.030651692
-0.031372909
-0.028848652
-0.027766827
-0.025603178
-0.032454733
-0.02920926
-0.025603178
-0.015145542
-0.015145542
-0.015145542
-0.015145542
-0.015145542
-0.020915272
-0.018751623
-0.018751623
-0.018751623
-0.018751623
-0.018751623
-0.015866758
-0.015866758
-0.014424326
-0.016948583
-0.025603178
-0.025603178
-0.020915272
-0.020915272
-0.020915272
-0.020915272
-0.020915272
-0.026685003
-0.023078921
-0.024160746
-0.029569868
-0.032094125
-0.035339598
-0.032815341
-0.028848652
-0.028848652
-0.028848652
-0.028848652
-0.037142639
-0.037142639
-0.040388112
-0.04471541
-0.045436626
-0.049403316
-0.053370005
-0.053370005
-0.053370005
-0.053370005
-0.053370005
-0.064909466
-0.068876155
-0.07572771
-0.071761021
-0.073564061
-0.068154939
-0.078612575
-0.078251967
-0.080776224
-0.070679196
-0.073564061
-0.080415616
-0.091594469
-0.087627779
-0.091955077
-0.091955077
-0.096642983
-0.096642983
-0.096642983
-0.098085415
-0.098085415
-0.098085415
-0.098085415
-0.098085415
-0.093397509
-0.094839942
-0.094839942
-0.094839942
-0.094839942
-0.094839942
-0.10493697
-0.100609672
-0.099527848
-0.103855145
-0.099888456
-0.105297578
-0.100609672
-0.100609672
-0.100609672
-0.100609672
-0.100609672
-0.101691497
-0.108182443
-0.108182443
-0.108182443
-0.108182443
-0.101691497
-0.101691497
-0.101691497
-0.101691497
-0.101691497
-0.101691497
-0.102773321
-0.106740011
-0.107821835
-0.103133929
-0.106018794
-0.106018794
-0.107461227
-0.108182443
-0.103133929
-0.109264268
-0.110346092
-0.109264268
-0.1107067
-0.105297578
-0.102412713
-0.107821835
-0.107461227
-0.108543051
-0.105297578
-0.111067308
-0.108543051
-0.108543051
-0.108543051
-0.121524944
-0.121885553
-0.128737107
-0.127294675
-0.127294675
-0.135588662
-0.142440217
-0.14965238
-0.14965238
-0.14965238
-0.14965238
-0.14965238
-0.167682787
-0.167682787
-0.168404003
-0.156864543
-0.158306975
-0.144964474
-0.128737107
-0.119361296
-0.096282374
-0.068515547
-0.045436626
-0.014063718
-0.001803041
0.042912369
0.042912369
0.042912369
0.042912369
0.204825426
0.204825426
0.204825426
0.204825426
0.204825426
0.204825426
0.361689968
0.389456795
0.389456795
0.389456795
0.389456795
0.413256933
0.411453892
0.403159905
0.378638551
0.336447398
0.29137138
0.255310566
0.214922454
0.173813125
0.128015891
0.09123386
0.067073115
0.033175949
0.004327298
0.004327298
0.004327298
0.004327298
0.004327298
-0.093036901
-0.093036901
-0.093036901
-0.093036901
-0.093036901
-0.113952173
-0.116837039
-0.116837039
-0.116837039
-0.118279471
-0.121885553
-0.125852242
-0.127655283
-0.128015891
-0.123688593
-0.118279471
-0.11467339
-0.104215754
-0.100249064
-0.105658186
-0.100609672
-0.090512644
-0.090512644
-0.090512644
-0.090512644
-0.073564061
-0.075367102
-0.06599129
-0.065630682
-0.069597372
-0.069597372
-0.069597372
-0.061663993
-0.061663993
-0.061663993
-0.061663993
-0.061663993
-0.061663993
-0.067794331
-0.06995798
-0.063106425
-0.076088318
-0.076809535
-0.081497441
-0.076809535
-0.071761021
-0.071761021
-0.070318588
-0.069236764
-0.071761021
-0.074285278
-0.073924669
-0.073924669
-0.073924669
-0.073924669
-0.073924669
-0.080055008
-0.080055008
-0.080055008
-0.080055008
-0.080055008
-0.080415616
-0.074285278
-0.074285278
-0.074285278
-0.074285278
-0.074285278
-0.067073115
-0.077170143
-0.06995798
-0.066351898
-0.066351898
-0.063106425
-0.066712507
-0.063467033
-0.055894262
-0.056615479
-0.060942776
-0.033175949
-0.033175949
-0.026685003
-0.022718313
-0.021997097
-0.031733517
-0.022718313
-0.023800137
-0.025963786
-0.024881962
-0.029569868
-0.024521354
-0.01947284
-0.019112232
-0.021636489
-0.014784934
-0.014784934
-0.01550615
-0.016227366
-0.016587975
-0.007572771
-0.007572771
-0.007572771
-0.007572771
-0.007572771
-0.004327298
-0.000721216
-0.000721216
-0.000721216
-0.000721216
-0.000721216
0.003245473
0.013703109
0.012260677
0.012621285
0.014784934
0.024521354
0.025603178
0.033897166
0.032454733
0.032454733
0.041830545
0.039306288
0.039306288
0.039306288
0.039306288
0.039306288
0.045797234
0.045797234
0.045797234
0.045797234
0.045797234
0.067073115
0.063827641
0.063467033
0.063467033
0.070679196
0.070679196
0.071400412
0.073203453
0.078973184
0.080776224
0.085103522
0.091594469
0.096282374
0.09520055
0.093758117
0.097003591
0.102773321
0.102412713
0.101330888
0.106018794
0.106018794
0.106018794
0.114312782
0.114312782
0.11467339
0.11467339
0.121164336
0.119361296
0.119721904
0.128737107
0.12621285
0.12621285
0.12621285
0.12621285
0.12621285
0.135228054
0.141358392
0.13991596
0.137752311
0.141358392
0.14568569
0.140276568
0.143161433
0.146767515
0.147128123
0.151816029
0.150734204
0.143522041
0.146406906
0.146406906
0.144964474
0.139555352
0.134867446
0.134867446
0.134867446
0.134867446
0.140637176
0.13991596
0.13991596
0.13991596
0.13991596
0.13991596
0.123327985
0.121524944
0.114312782
0.114312782
0.113230957
0.107821835
0.106379402
0.10493697
0.100609672
0.08943082
0.080776224
0.081136832
0.076809535
0.071039804
0.071039804
0.071039804
0.071039804
0.071039804
0.050845748
0.051566965
0.051566965
0.051566965
0.051566965
0.051566965
0.023439529
0.023439529
0.023439529
0.014424326
0.006851555
0.004687906
0.002884865
-0.011178852
-0.018391015
-0.026685003
-0.01947284
-0.02127588
-0.030651692
-0.028848652
-0.037863855
-0.038585071
-0.04074872
-0.043633585
-0.043633585
-0.043633585
-0.045797234
-0.045797234
-0.067073115
-0.071761021
-0.064548858
-0.064548858
-0.064548858
-0.073203453
-0.073203453
-0.073203453
-0.073203453
-0.073203453
-0.081858049
-0.081858049
-0.088709603
-0.082939873
-0.081858049
-0.090873252
-0.093036901
-0.094118726
-0.090152036
-0.09123386
-0.08943082
-0.095561158
-0.091955077
-0.094479334
-0.094479334
-0.094479334
-0.094479334
-0.094479334
-0.099527848
-0.093758117
-0.093758117
-0.093758117
-0.093758117
-0.093758117
-0.093758117
-0.096282374
-0.096282374
-0.096282374
-0.096282374
-0.096282374
-0.097364199
-0.093036901
-0.098806631
-0.094839942
-0.101330888
-0.100249064
-0.09916724
-0.09520055
-0.095921766
-0.098085415
-0.094839942
-0.093036901
-0.10493697
-0.103494537
-0.09916724
-0.100609672
-0.095561158
-0.101330888
-0.097724807
-0.092315685
-0.092315685
-0.10097028
-0.094118726
-0.104215754
-0.095561158
-0.095921766
-0.100249064
-0.093036901
-0.096642983
-0.09123386
-0.090873252
-0.094118726
-0.09520055
-0.091955077
-0.090512644
-0.096282374
-0.097364199
-0.093758117
-0.097724807
-0.096642983
-0.095921766
-0.093758117
-0.08943082
-0.09520055
-0.092315685
-0.09123386
-0.087627779
-0.088709603
-0.087267171
-0.090152036
-0.097724807
-0.093036901
-0.086906563
-0.087627779
-0.088348995
-0.086545955
-0.092315685
-0.087267171
-0.089070212
-0.084382306
-0.089791428
-0.087627779
-0.086906563
-0.090152036
-0.089791428
-0.075006494
-0.072482237
-0.071039804
-0.067073115
-0.071761021
-0.073924669
-0.073203453
-0.075006494
-0.077891359
-0.072121629
-0.073203453
-0.070318588
-0.077170143
-0.065630682
-0.078973184
-0.072842845
-0.068515547
-0.064548858
-0.066712507
-0.069597372
-0.062745817
-0.06418825
-0.066712507
-0.064909466
-0.072842845
-0.073564061
-0.068876155
-0.063827641
-0.065270074
-0.071400412
-0.06995798
-0.067794331
-0.071761021
-0.062745817
-0.063827641
-0.077170143
-0.067433723
-0.065630682
-0.067794331
-0.067073115
-0.060942776
-0.063106425
-0.063106425
-0.064548858
-0.072121629
-0.061303384
-0.064909466
-0.063827641
-0.06599129
-0.065630682
-0.068876155
-0.064909466
-0.060582168
-0.066712507
-0.066712507
-0.064548858
-0.065630682
-0.062024601
-0.059500344
-0.065270074
-0.06418825
-0.060942776
-0.061663993
-0.064909466
-0.067794331
-0.064909466
-0.064548858
-0.065630682
-0.065270074
-0.062745817
-0.06418825
-0.067073115
-0.061663993
-0.059500344
-0.065270074
-0.06599129
-0.06599129
-0.064909466
-0.059860952
-0.065270074
-0.063467033
-0.071039804
-0.060582168
-0.064909466
-0.063467033
-0.060582168
-0.065630682
-0.059500344
-0.062745817
-0.06599129
-0.062024601
-0.062745817
-0.066712507
-0.068154939
-0.063106425
-0.062385209
-0.058418519
-0.066712507
-0.061303384
-0.063827641
-0.063106425
-0.063467033
-0.063467033
-0.068515547
-0.060582168
-0.06599129
-0.06418825
-0.064909466
-0.064548858
-0.064909466
-0.061663993
-0.061663993
-0.062385209
-0.062385209
-0.061663993
-0.068515547
-0.065270074
-0.066351898
-0.066712507
-0.072482237
-0.064909466
-0.065630682
-0.067073115
-0.065630682
-0.070318588
-0.066351898
-0.060582168
-0.060582168
-0.066351898
-0.069597372
-0.063106425
-0.064548858
-0.062024601
-0.060942776
-0.063467033
-0.06022156
-0.060942776
-0.064548858
-0.062385209
-0.064909466
-0.059500344
-0.066351898
-0.059860952
-0.064548858
-0.064548858
-0.061663993
-0.061663993
-0.061303384
-0.068515547
-0.063467033
-0.067794331
-0.06022156
-0.065270074
-0.063467033
-0.068515547
-0.067433723
-0.063106425
-0.06995798
-0.066712507
-0.059139736
-0.064548858
-0.064548858
-0.064548858
-0.067073115
-0.065630682
-0.062385209
-0.065630682
-0.065270074
-0.063106425
-0.06599129
-0.059500344
-0.06418825
-0.06995798
-0.066351898
-0.068154939
-0.067073115
-0.06599129
-0.061303384
-0.066712507
-0.069236764
-0.06599129
-0.063827641
-0.067794331
-0.057697303
-0.059500344
-0.061663993
-0.063827641
-0.054091222
-0.068154939
-0.063106425
-0.067073115
-0.060582168
-0.066712507
-0.066712507
-0.065630682
-0.061663993
-0.065270074
-0.056976087
-0.06022156
-0.061663993
-0.062385209
-0.063106425
-0.067433723
-0.063467033
-0.067794331
-0.062024601
-0.063106425
-0.062745817
-0.055533654
-0.065630682
-0.073924669
-0.06995798
-0.071039804
-0.076088318
-0.074645886
-0.077530751
-0.079333792
-0.077891359
-0.078612575
-0.074285278
-0.078973184
-0.081858049
-0.078612575
-0.075367102
-0.082579265
-0.075006494
-0.081497441
-0.072121629
-0.080415616
-0.073203453
-0.070679196
-0.072121629
-0.064548858
-0.067433723
-0.071761021
-0.069236764
-0.064548858
-0.065630682
-0.072482237
-0.064909466
-0.063827641
-0.063827641
-0.063467033
-0.06599129
-0.063827641
-0.066712507
-0.068154939
-0.066351898
-0.068515547
-0.068515547
-0.072842845
-0.082939873
-0.075367102
-0.081858049
-0.0796944
-0.070679196
-0.076088318
-0.075367102
-0.073924669
-0.070318588
-0.071039804
-0.078251967
-0.071400412
-0.068515547
-0.068154939
-0.069236764
-0.06599129
-0.066712507
-0.06022156
-0.055533654
-0.057336695
-0.059860952
-0.055894262
-0.055894262
-0.063106425
-0.057336695
-0.054091222
-0.051927573
-0.050845748
-0.05048514
-0.058779127
-0.052648789
-0.053009397
-0.045076018
-0.049042708
-0.04471541
-0.045076018
-0.049763924
-0.046518451
-0.040388112
-0.035339598
-0.035700206
-0.036421423
-0.039306288
-0.035700206
-0.0310123
-0.034257774
-0.0310123
-0.027045611
-0.031372909
-0.032815341
-0.030651692
-0.02920926
-0.028127435
-0.025603178
-0.021636489
-0.021636489
-0.02127588
-0.01947284
-0.018751623
-0.019112232
-0.025963786
-0.024160746
-0.021636489
-0.029930476
-0.029569868
-0.02920926
-0.027766827
-0.03894568
-0.041109328
-0.036421423
-0.037503247
-0.04074872
-0.040388112
-0.045797234
-0.041830545
-0.045076018
-0.049763924
-0.055173046
-0.058418519
-0.058779127
-0.06418825
-0.067794331
-0.068154939
-0.071039804
-0.076088318
-0.071400412
-0.076088318
-0.073924669
-0.080415616
-0.084382306
-0.078973184
-0.078251967
-0.083661089
-0.08943082
-0.087988387
-0.087988387
-0.090512644
-0.097364199
-0.098446023
-0.095561158
-0.09916724
-0.100249064
-0.101691497
-0.098806631
-0.098806631
-0.094839942
-0.097724807
-0.094839942
-0.100609672
-0.097724807
-0.099527848
-0.103855145
-0.101691497
-0.104576362
-0.102773321
-0.104215754
-0.099888456
-0.096642983
-0.112149133
-0.103494537
-0.102412713
-0.102412713
-0.106740011
-0.100249064
-0.101330888
-0.107821835
-0.106379402
-0.102052105
-0.10097028
-0.103494537
-0.099527848
-0.104576362
-0.106379402
-0.101691497
-0.099888456
-0.105297578
-0.10493697
-0.103494537
-0.102773321
-0.097364199
-0.106379402
-0.114312782
-0.110346092
-0.108182443
-0.1107067
-0.113952173
-0.109985484
-0.108543051
-0.107821835
-0.107100619
-0.106740011
-0.108903659
-0.107821835
-0.115394606
-0.118279471
-0.119361296
-0.126934067
-0.12621285
-0.132703797
-0.131982581
-0.138834135
-0.143882649
-0.14965238
-0.153979677
-0.154700894
-0.167682787
-0.162634273
-0.16515853
-0.164797922
-0.161552448
-0.1593888
-0.147488731
-0.144964474
-0.132343189
-0.113230957
-0.096282374
-0.068154939
-0.038224463
-0.006851555
0.024160746
0.064909466
0.103855145
0.138112919
0.177419207
0.210234548
0.24485293
0.263243945
0.3011078
0.331759492
0.349429291
0.380441592
0.40207808
0.430566124
0.434532813
0.431647948
0.425157002
0.420469096
0.400635648
0.386211322
0.364574833
0.332841317
0.288847123
0.247377187
0.203743601
0.169125219
0.122967377
0.087267171
0.062024601
0.028488043
0.004687906
-0.02920926
-0.047600275
-0.064548858
-0.083300481
-0.090873252
-0.098446023
-0.101330888
-0.103855145
-0.116115822
-0.121164336
-0.117918863
-0.119000687
-0.11647643
-0.12044312
-0.123688593
-0.127655283
-0.122246161
-0.127655283
-0.120803728
-0.12621285
-0.118640079
-0.111788525
-0.111788525
-0.106740011
-0.106018794
-0.096642983
-0.093758117
-0.081136832
-0.076448927
-0.076809535
-0.078973184
-0.074645886
-0.075367102
-0.066712507
-0.065270074
-0.066351898
-0.065270074
-0.062745817
-0.06599129
-0.067073115
-0.067794331
-0.065630682
-0.066712507
-0.068515547
-0.070679196
-0.064909466
-0.074645886
-0.077170143
-0.076088318
-0.071039804
-0.070318588
-0.069236764
-0.072482237
-0.069597372
-0.072121629
-0.071400412
-0.083300481
-0.077170143
-0.077530751
-0.085824738
-0.082939873
-0.084021698
-0.081497441
-0.084382306
-0.084742914
-0.082939873
-0.084382306
-0.077891359
-0.078973184
-0.074285278
-0.074285278
-0.074645886
-0.074285278
-0.074285278
-0.062745817
-0.066712507
-0.062385209
-0.065270074
-0.062385209
-0.061303384
-0.059860952
-0.053009397
-0.058418519
-0.060942776
-0.059860952
-0.054091222
-0.058057911
-0.054812438
-0.051927573
-0.049042708
-0.047239667
-0.047600275
-0.050845748
-0.039666896
-0.03497899
-0.038585071
-0.043272977
-0.032454733
-0.042191153
-0.035700206
-0.029930476
-0.029930476
-0.023439529
-0.031372909
-0.028488043
-0.026324395
-0.021636489
-0.019833448
-0.012621285
-0.024521354
-0.016227366
-0.016227366
-0.014784934
-0.013703109
-0.018751623
-0.01947284
-0.011900069
-0.003245473
-0.009015204
-0.009375812
-0.007933379
-0.003245473
-0.002163649
0.004327298
0
0.00396669
0.00396669
0.006851555
0.007212163
0.009375812
0.007933379
0.007933379
0.01947284
0.026324395
0.026685003
0.032094125
0.036782031
0.035339598
0.042551761
0.036782031
0.046879059
0.041109328
0.049042708
0.047239667
0.052648789
0.052648789
0.058057911
0.055173046
0.062024601
0.063467033
0.064909466
0.064909466
0.067794331
0.070679196
0.072842845
0.072482237
0.075367102
0.079333792
0.085824738
0.084021698
0.087988387
0.095561158
0.090512644
0.09520055
0.10097028
0.100609672
0.102052105
0.102052105
0.104215754
0.106740011
0.112509741
0.12440981
0.113952173
0.121164336
0.124049201
0.122246161
0.123327985
0.12440981
0.12044312
0.132703797
0.135588662
0.131982581
0.13017954
0.12621285
0.13594927
0.13414623
0.139194744
0.142079609
0.143882649
0.135588662
0.146767515
0.142440217
0.136670487
0.150373596
0.14965238
0.148570555
0.148209947
0.144603866
0.15145542
0.144603866
0.141719001
0.136670487
0.131621973
0.137031095
0.139555352
0.136670487
0.138834135
0.13414623
0.129818932
0.13017954
0.125491634
0.125131026
0.119721904
0.117197647
0.111427916
0.106018794
0.102773321
0.105658186
0.106379402
0.096642983
0.090152036
0.086185346
0.076448927
0.074645886
0.066351898
0.067073115
0.065270074
0.063827641
0.057697303
0.053730613
0.051566965
0.045797234
0.031733517
0.026685003
0.020554664
0.019833448
0.010818244
0.016227366
0.009375812
0.011539461
-0.002884865
-0.012260677
-0.017669799
-0.026324395
-0.02524257
-0.024521354
-0.0310123
-0.031372909
-0.035339598
-0.046879059
-0.04074872
-0.04471541
-0.045797234
-0.052288181
-0.054091222
-0.055894262
-0.065630682
-0.065630682
-0.070679196
-0.066351898
-0.076448927
-0.07572771
-0.070679196
-0.074645886
-0.07572771
-0.078251967
-0.083661089
-0.082939873
-0.083661089
-0.090512644
-0.090152036
-0.091594469
-0.094839942
-0.091955077
-0.088348995
-0.094479334
-0.094839942
-0.084742914
-0.097003591
-0.094118726
-0.097364199
-0.094479334
-0.086906563
-0.095921766
-0.099888456
-0.089791428
-0.091594469
-0.090873252
-0.094479334
-0.090152036
-0.086185346
-0.095561158
-0.101691497
-0.102412713
-0.100609672
-0.094479334
-0.102412713
-0.098806631
-0.099888456
-0.097724807
-0.102773321
-0.10097028
-0.094479334
-0.098085415
-0.094479334
-0.096282374
-0.098446023
-0.102052105
-0.099527848
-0.097364199
-0.091594469
-0.099888456
-0.09520055
-0.095921766
-0.093758117
-0.100249064
-0.10097028
-0.094118726
-0.095561158
-0.097724807
-0.09520055
-0.099527848
-0.097724807
-0.094118726
-0.096642983
-0.090873252
-0.091594469
-0.093758117
-0.092315685
-0.091594469
-0.093397509
-0.098806631
-0.09123386
-0.094839942
-0.094479334
-0.086906563
-0.091594469
-0.093036901
-0.098446023
-0.090152036
-0.090873252
-0.094839942
-0.088709603
-0.085103522
-0.085103522
-0.08546413
-0.09123386
-0.083300481
-0.085103522
-0.084742914
-0.090512644
-0.087988387
-0.086906563
-0.087988387
-0.089791428
-0.090873252
-0.090873252
-0.085103522
-0.089791428
-0.093036901
-0.084382306
-0.073203453
-0.073203453
-0.06995798
-0.076088318
-0.066712507
-0.070679196
-0.070679196
-0.068154939
-0.067433723
-0.065630682
-0.071039804
-0.073564061
-0.072121629
-0.069236764
-0.076809535
-0.070318588
-0.072842845
-0.070318588
-0.06995798
-0.065270074
-0.063827641
-0.067794331
-0.069236764
-0.069236764
-0.06599129
-0.073924669
-0.071761021
-0.071039804
-0.072121629
-0.071039804
-0.068154939
-0.070679196
-0.070679196
-0.06599129
-0.063827641
-0.060582168
-0.06022156
-0.061303384
-0.066351898
-0.061303384
-0.071039804
-0.06418825
-0.068876155
-0.063467033
-0.066712507
-0.062024601
-0.061663993
-0.061303384
-0.061303384
-0.059860952
-0.065630682
-0.057336695
-0.061663993
-0.058057911
-0.065270074
-0.059860952
-0.063827641
-0.062024601
-0.061663993
-0.068154939
-0.064909466
-0.058418519
-0.06022156
-0.070318588
-0.069597372
-0.063106425
-0.061663993
-0.061663993
-0.062745817
-0.064909466
-0.064548858
-0.063467033
-0.065630682
-0.067433723
-0.059500344
-0.056976087
-0.06418825
-0.064548858
-0.064548858
-0.062024601
-0.060582168
-0.062745817
-0.064548858
-0.065270074
-0.064548858
-0.061303384
-0.061303384
-0.062385209
-0.063827641
-0.060582168
-0.06418825
-0.067073115
-0.064548858
-0.063106425
-0.063106425
-0.064909466
-0.064909466
-0.062745817
-0.068154939
-0.064909466
-0.068154939
-0.06599129
-0.068515547
-0.064548858
-0.062745817
-0.058779127
-0.065270074
-0.064909466
-0.066712507
-0.061663993
-0.063106425
-0.061303384
-0.063827641
-0.067794331
-0.062745817
-0.061663993
-0.067433723
-0.063106425
-0.06599129
-0.065270074
-0.063467033
-0.068515547
-0.06418825
-0.059500344
-0.061663993
-0.061303384
-0.06599129
-0.059139736
-0.065270074
-0.063827641
-0.066712507
-0.060582168
-0.062024601
-0.06418825
-0.066712507
-0.059860952
-0.063827641
-0.06418825
-0.067794331
-0.066712507
-0.067433723
-0.064548858
-0.059139736
-0.067794331
-0.068876155
-0.057697303
-0.063106425
-0.057697303
-0.069236764
-0.063467033
-0.055894262
-0.06022156
-0.063106425
-0.064909466
-0.06995798
-0.063827641
-0.065630682
-0.063106425
-0.06418825
-0.067073115
-0.065270074
-0.063467033
-0.063827641
-0.064909466
-0.060582168
-0.063827641
-0.064909466
-0.067794331
-0.067794331
-0.057336695
-0.061303384
-0.067794331
-0.065630682
-0.062024601
-0.06418825
-0.063467033
-0.061663993
-0.067433723
-0.062745817
-0.064909466
-0.063106425
-0.06022156
-0.06599129
-0.060582168
-0.063827641
-0.065630682
-0.069236764
-0.063106425
-0.059139736
-0.067794331
-0.066712507
-0.067073115
-0.06995798
-0.069597372
-0.073924669
-0.072842845
-0.075006494
-0.078973184
-0.073564061
-0.073203453
-0.078612575
-0.069236764
-0.076088318
-0.082579265
-0.080055008
-0.077891359
-0.077170143
-0.080776224
-0.075006494
-0.079333792
-0.071039804
-0.066712507
-0.066351898
-0.067794331
-0.068154939
-0.067794331
-0.070679196
-0.070318588
-0.071400412
-0.061303384
-0.070679196
-0.069597372
-0.067433723
-0.070679196
-0.067433723
-0.068876155
-0.065630682
-0.067794331
-0.073924669
-0.068876155
-0.075367102
-0.081858049
-0.078251967
-0.078251967
-0.077891359
-0.077170143
-0.071761021
-0.068515547
-0.072482237
-0.069597372
-0.075006494
-0.077530751
-0.074645886
-0.070679196
-0.064909466
-0.063467033
-0.063827641
-0.064548858
-0.060582168
-0.06022156
-0.058057911
-0.063106425
-0.06022156
-0.059860952
-0.062745817
-0.055173046
-0.05445183
-0.049763924
-0.049763924
-0.05048514
-0.05445183
-0.056976087
-0.049763924
-0.043994194
-0.040027504
-0.042191153
-0.040027504
-0.046518451
-0.040388112
-0.040388112
-0.041109328
-0.041469937
-0.035339598
-0.035339598
-0.035700206
-0.032454733
-0.030651692
-0.033175949
-0.030651692
-0.028848652
-0.035339598
-0.029930476
-0.031733517
-0.026685003
-0.02127588
-0.020554664
-0.017669799
-0.015866758
-0.020915272
-0.023078921
-0.024160746
-0.017669799
-0.013703109
-0.014424326
-0.016227366
-0.014784934
-0.019112232
-0.011539461
-0.019833448
-0.014063718
-0.015145542
-0.020915272
-0.025963786
-0.023800137
-0.029930476
-0.032815341
-0.024160746
-0.026324395
-0.025963786
-0.027406219
-0.028127435
-0.028848652
-0.027045611
-0.032815341
-0.040388112
-0.041469937
-0.044354802
-0.029569868
-0.041109328
-0.038224463
-0.044354802
-0.043994194
-0.044354802
-0.053009397
-0.060942776
-0.062024601
-0.067794331
-0.06418825
-0.066712507
-0.073203453
-0.066712507
-0.07572771
-0.073203453
-0.06995798
-0.0796944
-0.075006494
-0.078973184
-0.079333792
-0.082218657
-0.084382306
-0.088348995
-0.099888456
-0.093036901
-0.093036901
-0.097003591
-0.094839942
-0.095561158
-0.097364199
-0.097724807
-0.099888456
-0.093397509
-0.096282374
-0.096282374
-0.102412713
-0.097364199
-0.093036901
-0.099888456
-0.094479334
-0.10097028
-0.101691497
-0.10493697
-0.103133929
-0.109264268
-0.112870349
-0.102773321
-0.096282374
-0.098446023
-0.105658186
-0.102052105
-0.102773321
-0.105297578
-0.103494537
-0.108182443
-0.098806631
-0.107100619
-0.102773321
-0.102412713
-0.101691497
-0.102052105
-0.106379402
-0.098806631
-0.102773321
-0.102773321
-0.10493697
-0.105658186
-0.107821835
-0.096282374
-0.107461227
-0.112870349
-0.103133929
-0.108543051
-0.112149133
-0.103855145
-0.110346092
-0.108182443
-0.106018794
-0.107821835
-0.109985484
-0.107821835
-0.119361296
-0.12440981
-0.123327985
-0.128015891
-0.130900756
-0.136670487
-0.13414623
-0.139194744
-0.14568569
-0.146046298
-0.156864543
-0.163716097
-0.161552448
-0.16119184
-0.168043395
-0.168404003
-0.165879746
-0.156143326
-0.139555352
-0.13017954
-0.108903659
-0.085824738
-0.066712507
-0.032815341
-0.009015204
0.032815341
0.072842845
0.088709603
0.121164336
0.158667583
0.201940561
0.239443808
0.277668271
0.303632057
0.338971655
0.346544426
0.383326457
0.41001146
0.429844908
0.433811597
0.426238826
0.42155092
0.421190312
0.403520513
0.388014363
0.358805103
0.319498815
0.283798609
0.263965161
0.226101306
0.135228054
0.093397509
0.062745817
0.023439529
-0.006130338
-0.030651692
-0.05445183
-0.070318588
-0.086545955
-0.08943082
-0.100249064
-0.105297578
-0.1107067
-0.119000687
-0.117558255
-0.120803728
-0.113230957
-0.122246161
-0.119721904
-0.122967377
-0.126934067
-0.127655283
-0.125491634
-0.128376499
-0.120082512
-0.111788525
-0.109985484
-0.109624876
-0.109624876
-0.107461227
-0.096642983
-0.091955077
-0.084382306
-0.080415616
-0.080415616
-0.074285278
-0.068515547
-0.068515547
-0.071400412
-0.072121629
-0.068515547
-0.066712507
-0.063106425
-0.060582168
-0.051927573
-0.067073115
-0.071039804
-0.073203453
-0.069236764
-0.064909466
-0.068876155
-0.077170143
-0.078251967
-0.076809535
-0.076809535
-0.07572771
-0.077170143
-0.071761021
-0.071400412
-0.07572771
-0.075006494
-0.077891359
-0.086906563
-0.083300481
-0.081136832
-0.085103522
-0.086906563
-0.083661089
-0.078973184
-0.076809535
-0.077170143
-0.090152036
-0.087627779
-0.077530751
-0.078973184
-0.076809535
-0.077891359
-0.077891359
-0.070679196
-0.065270074
-0.057336695
-0.059500344
-0.063827641
-0.061663993
-0.061303384
-0.059500344
-0.057336695
-0.060582168
-0.059139736
-0.05625487
-0.058779127
-0.054091222
-0.058418519
-0.051927573
-0.04471541
-0.056615479
-0.043994194
-0.039306288
-0.036421423
-0.036060814
-0.032815341
-0.031733517
-0.028127435
-0.035339598
-0.031372909
-0.029930476
-0.026685003
-0.028488043
-0.027045611
-0.027045611
-0.027766827
-0.028127435
-0.021997097
-0.024881962
-0.022357705
-0.018030407
-0.014063718
-0.018391015
-0.016227366
-0.017309191
-0.014424326
-0.010097028
-0.007572771
-0.002524257
-0.006490947
-0.001442433
-0.005409122
-0.003606081
0.037863855
0.041109328
0.046518451
0.047600275
0.042191153
0.046879059
0.047239667
0.046879059
0.052288181
0.052648789
0.055173046
0.060582168
0.062024601
0.056976087
0.066351898
0.074285278
0.070679196
0.071761021
0.073924669
0.078612575
0.083300481
0.077891359
0.091594469
0.087627779
0.085103522
0.090152036
0.097364199
0.09916724
0.100609672
0.104576362
0.104215754
0.099888456
0.113591565
0.116837039
0.115394606
0.118640079
0.115755214
0.118640079
0.122606769
0.118279471
0.117197647
0.125852242
0.130540148
0.130540148
0.133785621
0.13414623
0.130900756
0.13594927
0.13594927
0.144964474
0.137752311
0.144964474
0.140997784
0.143882649
0.143522041
0.149291772
0.140276568
0.144243258
0.148209947
0.148209947
0.148209947
0.148209947
0.148209947
0.14965238
0.14568569
0.14568569
0.14568569
0.14568569
0.140276568
0.134867446
0.135228054
0.135228054
0.130900756
0.130900756
0.13017954
0.12440981
0.125131026
0.125131026
0.125131026
0.117558255
0.107461227
0.104215754
0.094118726
0.10097028
0.08943082
0.084742914
0.084742914
0.072121629
0.072121629
0.072121629
0.060942776
0.062024601
0.058418519
0.059500344
0.055173046
0.038224463
0.029569868
0.027045611
0.027045611
0.027045611
0.01550615
0.006490947
0.009015204
0.002524257
0.001081824
-0.001803041
-0.00576973
-0.022357705
-0.021997097
-0.02127588
-0.027045611
-0.032454733
-0.03497899
-0.037142639
-0.04074872
-0.041830545
-0.041830545
-0.048682099
-0.057697303
-0.057697303
-0.057697303
-0.057697303
-0.057697303
-0.070318588
-0.070318588
-0.070318588
-0.070318588
-0.070318588
-0.070318588
-0.0796944
-0.077891359
-0.084742914
-0.084742914
-0.0796944
-0.085824738
-0.094118726
-0.089070212
-0.094479334
-0.092315685
-0.089791428
-0.091594469
-0.091594469
-0.091594469
-0.091594469
-0.091594469
-0.100249064
-0.100249064
-0.086906563
-0.086906563
-0.086906563
-0.086906563
-0.092315685
-0.092315685
-0.088709603
-0.086185346
-0.092315685
-0.096642983
-0.102052105
-0.097364199
-0.092676293
-0.093036901
-0.099888456
-0.090873252
-0.097724807
-0.098085415
-0.098806631
-0.101691497
-0.099527848
-0.10097028
-0.092315685
-0.096282374
-0.096282374
-0.096282374
-0.096282374
-0.090152036
-0.093397509
-0.097364199
-0.096282374
-0.094479334
-0.102773321
-0.098446023
-0.098446023
-0.098446023
-0.098446023
-0.098446023
-0.09916724
-0.094479334
-0.098446023
-0.097724807
-0.098085415
-0.094118726
-0.094479334
-0.094839942
-0.094839942
-0.09520055
-0.098085415
-0.086906563
-0.094118726
-0.090512644
-0.090512644
-0.090512644
-0.088709603
-0.088709603
-0.088709603
-0.088709603
-0.088709603
-0.09123386
-0.09123386
-0.09123386
-0.09123386
-0.09123386
-0.09123386
-0.088709603
-0.086185346
-0.085103522
-0.089791428
-0.08943082
-0.093036901
-0.09123386
-0.085103522
-0.090512644
-0.083300481
-0.088348995
-0.092676293
-0.090512644
-0.090512644
-0.090512644
-0.090512644
-0.090512644
-0.090512644
-0.068876155
-0.068876155
-0.068876155
-0.068876155
-0.068876155
-0.072842845
-0.073203453
-0.067073115
-0.072121629
-0.076809535
-0.077170143
-0.077170143
-0.077170143
-0.077170143
-0.077170143
-0.077170143
-0.061303384
-0.062024601
-0.071039804
-0.073203453
-0.06599129
-0.063467033
-0.073564061
-0.073564061
-0.073564061
-0.070318588
-0.070318588
-0.076448927
-0.073203453
-0.067073115
-0.071761021
-0.071761021
-0.067073115
-0.067433723
-0.067433723
-0.067433723
-0.067433723
-0.067433723
-0.064909466
-0.068154939
-0.062024601
-0.062024601
-0.061663993
-0.060582168
-0.062385209
-0.062745817
-0.065630682
-0.063106425
-0.064548858
-0.066351898
-0.06599129
-0.058418519
-0.066351898
-0.060942776
-0.063827641
-0.06022156
-0.059860952
-0.059860952
-0.059860952
-0.059860952
-0.059860952
-0.06599129
-0.06599129
-0.06599129
-0.06599129
-0.06599129
-0.06599129
-0.06418825
-0.068876155
-0.063467033
-0.062745817
-0.060942776
-0.062745817
-0.069597372
-0.064909466
-0.06418825
-0.067433723
-0.062745817
-0.066351898
-0.066351898
-0.066351898
-0.066351898
-0.066351898
-0.068876155
-0.065630682
-0.065630682
-0.065630682
-0.065630682
-0.065270074
-0.075006494
-0.062024601
-0.062024601
-0.063827641
-0.066712507
-0.066712507
-0.06418825
-0.06995798
-0.064548858
-0.063467033
-0.06599129
-0.060942776
-0.064548858
-0.061663993
-0.067794331
-0.061303384
-0.059860952
-0.066351898
-0.067073115
-0.067073115
-0.067073115
-0.067073115
-0.067073115
-0.066712507
-0.063106425
-0.06418825
-0.067433723
-0.067433723
-0.059500344
-0.063106425
-0.063106425
-0.063106425
-0.063106425
-0.064548858
-0.064909466
-0.063106425
-0.059860952
-0.064548858
-0.064909466
-0.064909466
-0.066351898
-0.062024601
-0.066351898
-0.068154939
-0.059860952
-0.068515547
-0.062024601
-0.067433723
-0.064909466
-0.061303384
-0.063467033
-0.061663993
-0.061663993
-0.061663993
-0.061663993
-0.065630682
-0.065630682
-0.065630682
-0.065630682
-0.065630682
-0.065630682
-0.06599129
-0.067433723
-0.064548858
-0.060942776
-0.067433723
-0.067433723
-0.064548858
-0.059500344
-0.062745817
-0.060582168
-0.062745817
-0.070679196
-0.070679196
-0.070679196
-0.070679196
-0.070679196
-0.070679196
-0.06995798
-0.064909466
-0.064909466
-0.064909466
-0.064909466
-0.067433723
-0.067433723
-0.067433723
-0.065270074
-0.067794331
-0.066351898
-0.06418825
-0.06418825
-0.06418825
-0.06418825
-0.062024601
-0.064548858
-0.063106425
-0.067433723
-0.065270074
-0.061303384
-0.056976087
-0.056976087
-0.056976087
-0.056976087
-0.056976087
-0.063827641
-0.063827641
-0.063827641
-0.061663993
-0.064909466
-0.067794331
-0.06599129
-0.06599129
-0.06599129
-0.06599129
-0.06599129
-0.065630682
-0.068154939
-0.064548858
-0.070318588
-0.070679196
-0.068154939
-0.068154939
-0.073924669
-0.069236764
-0.081497441
-0.078973184
-0.077891359
-0.07572771
-0.078973184
-0.078612575
-0.077891359
-0.077891359
-0.074645886
-0.077530751
-0.077530751
-0.077530751
-0.077530751
-0.077530751
-0.06995798
-0.06995798
-0.06995798
-0.06995798
-0.06995798
-0.06995798
-0.06995798
-0.067433723
-0.067433723
-0.067433723
-0.067433723
-0.070318588
-0.070318588
-0.071039804
-0.071039804
-0.071039804
-0.071039804
-0.076448927
-0.076448927
-0.076448927
-0.076448927
-0.076448927
-0.078251967
-0.081136832
-0.081136832
-0.081136832
-0.081136832
-0.077891359
-0.072482237
-0.070318588
-0.070318588
-0.074645886
-0.070318588
-0.072842845
-0.066712507
-0.065270074
-0.052648789
-0.06995798
-0.063467033
-0.06022156
-0.06022156
-0.060582168
-0.062024601
-0.063827641
-0.059860952
-0.057697303
-0.053009397
-0.053009397
-0.053009397
-0.053009397
-0.053009397
-0.045797234
-0.045797234
-0.045797234
-0.050124532
-0.042551761
-0.042551761
-0.042551761
-0.042551761
-0.042551761
-0.03894568
-0.039666896
-0.037142639
-0.037503247
-0.032094125
-0.034618382
-0.036782031
-0.041830545
-0.034618382
-0.02524257
-0.031733517
-0.029569868
-0.028848652
-0.028127435
-0.018751623
-0.019112232
-0.021636489
-0.018030407
-0.02127588
-0.016587975
-0.020194056
-0.023800137
-0.014424326
-0.014063718
-0.011900069
-0.010818244
-0.015866758
-0.029930476
-0.027766827
-0.035339598
-0.041469937
-0.03894568
-0.03894568
-0.03894568
-0.042551761
-0.04074872
-0.042551761
-0.04074872
-0.043633585
-0.051927573
-0.053009397
-0.062745817
-0.06022156
-0.06418825
-0.065630682
-0.062024601
-0.071039804
-0.069597372
-0.077170143
-0.06995798
-0.071761021
-0.075367102
-0.076088318
-0.081136832
-0.076088318
-0.081136832
-0.08546413
-0.089791428
-0.08943082
-0.088348995
-0.094839942
-0.092315685
-0.10097028
-0.09916724
-0.097364199
-0.094839942
-0.102412713
-0.094118726
-0.098446023
-0.102773321
-0.093036901
-0.098806631
-0.100249064
-0.097003591
-0.102412713
-0.09916724
-0.106018794
-0.101691497
-0.100609672
-0.100609672
-0.102052105
-0.103133929
-0.106018794
-0.104576362
-0.102412713
-0.103855145
-0.108182443
-0.099888456
-0.102052105
-0.105297578
-0.099888456
-0.102052105
-0.095921766
-0.102412713
-0.10097028
-0.107821835
-0.104215754
-0.10097028
-0.098085415
-0.10493697
-0.103494537
-0.101330888
-0.101691497
-0.102773321
-0.097003591
-0.113952173
-0.107821835
-0.108903659
-0.105297578
-0.106018794
-0.115394606
-0.106018794
-0.104576362
-0.106018794
-0.107821835
-0.106018794
-0.106018794
-0.116837039
-0.128376499
-0.126934067
-0.126934067
-0.13414623
-0.129458324
-0.144964474
-0.145325082
-0.150012988
-0.156864543
-0.159028191
-0.162634273
-0.164076705
-0.160831232
-0.163355489
-0.162994881
-0.158306975
-0.14568569
-0.135588662
-0.124049201
-0.103133929
-0.082939873
-0.068154939
-0.046879059
-0.018391015
0.016587975
0.053009397
0.097724807
0.128015891
0.177058599
0.208431507
0.245213538
0.279471312
0.311565436
0.338250439
0.36709909
0.38657193
0.4118145
0.431647948
0.42551761
0.428402475
0.421190312
0.419026663
0.412896325
0.391620444
0.367820307
0.337168615
0.290289556
0.257834823
0.210234548
0.173091909
0.124770418
0.090873252
0.057697303
0.021997097
-0.010457636
-0.031372909
-0.058779127
-0.067794331
-0.083661089
-0.093036901
-0.09916724
-0.106379402
-0.108182443
-0.109264268
-0.119000687
-0.121524944
-0.115033998
-0.109624876
-0.127294675
-0.122967377
-0.124770418
-0.125852242
-0.124049201
-0.12440981
-0.11647643
-0.117197647
-0.103855145
-0.105297578
-0.102412713
-0.106379402
-0.095561158
-0.089791428
-0.087267171
-0.077530751
-0.077530751
-0.072482237
-0.074285278
-0.063827641
-0.059860952
-0.066712507
-0.06599129
-0.065270074
-0.063827641
-0.063467033
-0.059860952
-0.067433723
-0.065270074
-0.066712507
-0.068515547
-0.073203453
-0.072482237
-0.077891359
-0.073203453
-0.077170143
-0.071039804
-0.071400412
-0.070679196
-0.06995798
-0.075367102
-0.073564061
-0.070679196
-0.078973184
-0.079333792
-0.082218657
-0.087267171
-0.082939873
-0.084742914
-0.086545955
-0.082579265
-0.071761021
-0.077891359
-0.075367102
-0.078612575
-0.078973184
-0.082939873
-0.076809535
-0.076088318
-0.077530751
-0.084021698
-0.067073115
-0.062024601
-0.061663993
-0.063827641
-0.058779127
-0.05625487
-0.056976087
-0.057336695
-0.058418519
-0.056615479
-0.059139736
-0.05625487
-0.050124532
-0.050845748
-0.052648789
-0.046879059
-0.049763924
-0.049763924
-0.047600275
-0.042551761
-0.037142639
-0.036060814
-0.037142639
-0.032454733
-0.037863855
-0.028488043
-0.031372909
-0.026685003
-0.027045611
-0.031733517
-0.02524257
-0.022718313
-0.024160746
-0.02524257
-0.023800137
-0.023439529
-0.01550615
-0.014784934
-0.018751623
-0.012621285
-0.014784934
-0.017669799
-0.017669799
-0.011178852
-0.003606081
-0.002884865
-0.001442433
-0.00396669
0.002524257
0.002884865
0.001081824
0.004327298
0.001081824
0.007572771
0.005409122
0.008293987
0.00973642
0.007212163
0.02127588
0.025963786
0.024160746
0.025963786
0.027766827
0.02920926
0.03894568
0.050124532
0.039666896
0.045076018
0.045436626
0.046157842
0.04074872
0.048682099
0.049763924
0.053009397
0.05445183
0.055894262
0.061663993
0.059860952
0.067794331
0.067794331
0.058057911
0.068154939
0.073203453
0.076088318
0.077170143
0.082218657
0.086906563
0.080415616
0.086185346
0.086545955
0.08943082
0.095561158
0.096282374
0.097724807
0.101691497
0.106379402
0.106018794
0.110346092
0.118640079
0.117558255
0.118640079
0.126934067
0.128015891
0.118640079
0.122606769
0.124049201
0.13017954
0.133064405
0.133425013
0.131261364
0.133425013
0.136309878
0.142440217
0.150012988
0.143161433
0.137031095
0.143522041
0.147488731
0.148570555
0.149291772
0.14568569
0.143161433
0.146406906
0.144603866
0.145325082
0.151816029
0.144603866
0.149291772
0.139555352
0.143161433
0.140997784
0.133785621
0.13991596
0.141358392
0.140637176
0.135588662
0.138473527
0.125852242
0.130540148
0.128376499
0.115033998
0.11467339
0.116837039
0.112149133
0.108543051
0.109624876
0.108903659
0.102052105
0.097003591
0.080055008
0.080055008
0.076809535
0.06995798
0.072482237
0.065630682
0.065630682
0.055533654
0.059860952
0.048321491
0.039666896
0.036782031
0.029930476
0.028488043
0.020194056
0.01550615
0.012621285
0.012981893
0.009375812
0.005048514
-0.000360608
-0.009015204
-0.023078921
-0.022718313
-0.026685003
-0.02524257
-0.029569868
-0.030651692
-0.033175949
-0.045076018
-0.047960883
-0.045436626
-0.046157842
-0.053009397
-0.050845748
-0.058418519
-0.06418825
-0.061663993
-0.072482237
-0.070318588
-0.072482237
-0.077530751
-0.069597372
-0.071039804
-0.076448927
-0.076448927
-0.078612575
-0.083661089
-0.084742914
-0.078612575
-0.085103522
-0.090152036
-0.093036901
-0.089070212
-0.091594469
-0.095561158
-0.095561158
-0.089070212
-0.099888456
-0.092315685
-0.098806631
-0.101330888
-0.08943082
-0.087988387
-0.09123386
-0.090152036
-0.089070212
-0.095921766
-0.091955077
-0.09520055
-0.092676293
-0.090152036
-0.094839942
-0.095561158
-0.095921766
-0.102052105
-0.098085415
-0.094118726
-0.10097028
-0.102052105
-0.101691497
-0.102052105
-0.097364199
-0.098085415
-0.101330888
-0.101330888
-0.096282374
-0.101330888
-0.095561158
-0.094479334
-0.096642983
-0.095921766
-0.096282374
-0.096642983
-0.093758117
-0.100609672
-0.097364199
-0.099888456
-0.099888456
-0.09520055
-0.098085415
-0.096642983
-0.096282374
-0.093758117
-0.097724807
-0.094839942
-0.094839942
-0.092315685
-0.093758117
-0.087988387
-0.088709603
-0.093397509
-0.09916724
-0.091594469
-0.08943082
-0.096642983
-0.091955077
-0.090873252
-0.094839942
-0.094118726
-0.092315685
-0.090512644
-0.08546413
-0.090873252
-0.093758117
-0.087267171
-0.086185346
-0.088348995
-0.086185346
-0.084742914
-0.083661089
-0.0796944
-0.081136832
-0.084742914
-0.090512644
-0.090152036
-0.088709603
-0.083661089
-0.091594469
-0.081497441
-0.078973184
-0.087988387
-0.078612575
-0.07572771
-0.077170143
-0.073203453
-0.075367102
-0.072121629
-0.078251967
-0.077170143
-0.074285278
-0.070679196
-0.076088318
-0.071761021
-0.071039804
-0.070318588
-0.072121629
-0.072842845
-0.068515547
-0.065630682
-0.071039804
-0.066712507
-0.071400412
-0.068515547
-0.06599129
-0.067433723
-0.06995798
-0.072482237
-0.068876155
-0.071039804
-0.066351898
-0.066351898
-0.070318588
-0.071761021
-0.066351898
-0.063827641
-0.060582168
-0.064548858
-0.059860952
-0.062745817
-0.062385209
-0.066351898
-0.060582168
-0.063827641
-0.068154939
-0.064909466
-0.06022156
-0.067073115
-0.060942776
-0.062745817
-0.063467033
-0.066712507
-0.06022156
-0.067794331
-0.063106425
-0.065630682
-0.066351898
-0.061663993
-0.062385209
-0.065630682
-0.064548858
-0.067794331
-0.063827641
-0.063467033
-0.070679196
-0.063827641
-0.067073115
-0.059500344
-0.063106425
-0.063106425
-0.062745817
-0.063106425
-0.063106425
-0.062745817
-0.067073115
-0.063827641
-0.060582168
-0.069236764
-0.061663993
-0.067073115
-0.063106425
-0.065270074
-0.064548858
-0.062024601
-0.065630682
-0.059860952
-0.06022156
-0.065270074
-0.061303384
-0.063827641
-0.06599129
-0.06599129
-0.064909466
-0.06418825
-0.059500344
-0.06995798
-0.070318588
-0.064548858
-0.059139736
-0.063467033
-0.058418519
-0.063106425
-0.059139736
-0.059860952
-0.061663993
-0.061663993
-0.061663993
-0.066351898
-0.062745817
-0.060942776
-0.068876155
-0.06418825
-0.054812438
-0.062745817
-0.066351898
-0.06418825
-0.059139736
-0.060942776
-0.065630682
-0.063106425
-0.072842845
-0.067073115
-0.064909466
-0.06418825
-0.06599129
-0.067433723
-0.061663993
-0.063827641
-0.064909466
-0.068154939
-0.063827641
-0.067794331
-0.067433723
-0.059500344
-0.064548858
-0.064909466
-0.063467033
-0.065630682
-0.067073115
-0.067073115
-0.060942776
-0.071400412
-0.065270074
-0.062745817
-0.066712507
-0.061663993
-0.061663993
-0.06418825
-0.060942776
-0.062024601
-0.06022156
-0.06418825
-0.063467033
-0.064548858
-0.067433723
-0.063827641
-0.068515547
-0.065630682
-0.058418519
-0.060942776
-0.06599129
-0.063106425
-0.058779127
-0.062024601
-0.063827641
-0.064909466
-0.059500344
-0.06599129
-0.064548858
-0.063106425
-0.060582168
-0.063106425
-0.068154939
-0.063106425
-0.06418825
-0.06418825
-0.053009397
-0.06995798
-0.065270074
-0.062745817
-0.064909466
-0.063467033
-0.064909466
-0.063467033
-0.067794331
-0.06599129
-0.06418825
-0.056615479
-0.058057911
-0.068154939
-0.063106425
-0.065270074
-0.062385209
-0.063827641
-0.06995798
-0.068876155
-0.068876155
-0.074285278
-0.076088318
-0.083300481
-0.079333792
-0.082579265
-0.084382306
-0.0796944
-0.078973184
-0.077170143
-0.082579265
-0.082939873
-0.074285278
-0.081136832
-0.076448927
-0.076448927
-0.079333792
-0.075006494
-0.06995798
-0.067794331
-0.06599129
-0.075006494
-0.074285278
-0.070318588
-0.068154939
-0.073203453
-0.06995798
-0.071039804
-0.066712507
-0.067073115
-0.071039804
-0.073203453
-0.066351898
-0.070318588
-0.068876155
-0.066712507
-0.070679196
-0.072482237
-0.075006494
-0.080415616
-0.078251967
-0.077530751
-0.071039804
-0.074645886
-0.074645886
-0.076088318
-0.077891359
-0.074285278
-0.07572771
-0.072121629
-0.064909466
-0.063467033
-0.06418825
-0.059139736
-0.063827641
-0.063106425
-0.058418519
-0.060942776
-0.067073115
-0.062385209
-0.061663993
-0.055533654
-0.054812438
-0.05048514
-0.044354802
-0.052648789
-0.045436626
-0.052288181
-0.052648789
-0.051566965
-0.046518451
-0.039306288
-0.041469937
-0.04471541
-0.040027504
-0.042191153
-0.041830545
-0.038585071
-0.033897166
-0.034257774
-0.027766827
-0.033536557
-0.033897166
-0.036060814
-0.034257774
-0.027045611
-0.027045611
-0.0310123
-0.030291084
-0.032454733
-0.02920926
-0.01947284
-0.020915272
-0.020915272
-0.019833448
-0.018030407
-0.021997097
-0.024160746
-0.010097028
-0.009375812
-0.010457636
-0.012981893
-0.009375812
-0.01947284
-0.018751623
-0.011178852
-0.013703109
-0.018751623
-0.020915272
-0.020554664
-0.021997097
-0.027406219
-0.030651692
-0.02524257
-0.02127588
-0.028848652
-0.026324395
-0.025603178
-0.024160746
-0.03497899
-0.032815341
-0.034257774
-0.037503247
-0.040027504
-0.037503247
-0.036782031
-0.042191153
-0.043272977
-0.053370005
-0.05445183
-0.052288181
-0.062024601
-0.064548858
-0.062385209
-0.062385209
-0.069236764
-0.071400412
-0.071400412
-0.07572771
-0.077170143
-0.076809535
-0.076809535
-0.081136832
-0.0796944
-0.070679196
-0.081497441
-0.085824738
-0.086545955
-0.090152036
-0.090873252
-0.092315685
-0.095921766
-0.097003591
-0.098806631
-0.099888456
-0.098806631
-0.100249064
-0.098085415
-0.09123386
-0.099527848
-0.104576362
-0.098806631
-0.095561158
-0.097364199
-0.100609672
-0.103133929
-0.099527848
-0.10493697
-0.100609672
-0.102773321
-0.101330888
-0.100609672
-0.102412713
-0.107821835
-0.107461227
-0.100609672
-0.103855145
-0.106018794
-0.107821835
-0.102412713
-0.103494537
-0.101330888
-0.105297578
-0.102773321
-0.100249064
-0.105297578
-0.10493697
-0.106018794
-0.104215754
-0.103855145
-0.104576362
-0.099888456
-0.095921766
-0.101330888
-0.103855145
-0.115394606
-0.104215754
-0.104215754
-0.105297578
-0.109624876
-0.111067308
-0.10493697
-0.10493697
-0.107461227
-0.106018794
-0.112149133
-0.114312782
-0.122967377
-0.128737107
-0.127294675
-0.131621973
-0.132343189
-0.13594927
-0.141719001
-0.146046298
-0.150373596
-0.15542211
-0.159749408
-0.164437314
-0.160110016
-0.16515853
-0.164076705
-0.160110016
-0.156503934
-0.141358392
-0.134867446
-0.112870349
-0.090152036
-0.070318588
-0.042191153
-0.010457636
0.024160746
0.071761021
0.101330888
0.132343189
0.177419207
0.209152723
0.248098403
0.284880434
0.324186721
0.34582321
0.372868821
0.394865918
0.416502406
0.42551761
0.433090381
0.435614638
0.426960042
0.417584231
0.40207808
0.394144701
0.355199022
0.322023072
0.292453205
0.249180227
0.162994881
0.115755214
0.087627779
0.05048514
0.018030407
-0.014063718
-0.03894568
-0.055894262
-0.072842845
-0.081858049
-0.08943082
-0.092676293
-0.109624876
-0.108903659
-0.117197647
-0.121885553
-0.117197647
-0.115394606
-0.117558255
-0.125852242
-0.117197647
-0.123688593
-0.130540148
-0.127294675
-0.128737107
-0.116837039
-0.117197647
-0.108182443
-0.106018794
-0.11467339
-0.103855145
-0.10097028
-0.086185346
-0.078251967
-0.070318588
-0.075367102
-0.072121629
-0.071400412
-0.063467033
-0.062385209
-0.063827641
-0.063467033
-0.064909466
-0.062024601
-0.06599129
-0.070679196
-0.073203453
-0.068515547
-0.068154939
-0.069236764
-0.066712507
-0.0796944
-0.077530751
-0.077891359
-0.074645886
-0.070679196
-0.070318588
-0.072842845
-0.072482237
-0.075367102
-0.076809535
-0.080055008
-0.082218657
-0.084382306
-0.081497441
-0.084021698
-0.086545955
-0.082218657
-0.071761021
-0.074285278
-0.080055008
-0.078973184
-0.079333792
-0.077891359
-0.078251967
-0.076088318
-0.076809535
-0.081497441
-0.075006494
-0.066712507
-0.067794331
-0.065270074
-0.061663993
-0.061303384
-0.059860952
-0.061663993
-0.058779127
-0.059139736
-0.058057911
-0.059500344
-0.046879059
-0.049403316
-0.057697303
-0.050124532
-0.051927573
-0.053730613
-0.045436626
-0.039306288
-0.033897166
-0.034618382
-0.033897166
-0.032815341
-0.034257774
-0.032815341
-0.033536557
-0.042551761
-0.030291084
-0.025963786
-0.024881962
-0.02524257
-0.028488043
-0.020554664
-0.020554664
-0.020554664
-0.023439529
-0.017309191
-0.013703109
-0.019833448
-0.015866758
-0.009375812
-0.010457636
-0.007933379
-0.002524257
